,current,potential,elapsed_time,applied_potential,current_range,segment
0,-0.0002010030730161816,-1.4746440649032593,1.0,-1.4755985736846924,0.0002,0.0
1,-0.0002010030730161816,-1.4697366952896118,2.0,-1.470598578453064,0.0002,0.0
2,-0.0002010030730161816,-1.464829444885254,3.0,-1.4655985832214355,0.0002,0.0
3,-0.0002010030730161816,-1.4596154689788818,4.0,-1.4605985879898071,0.0002,0.0
4,-0.0002010030730161816,-1.4547080993652344,5.0,-1.4555985927581787,0.0002,0.0
5,-0.0002010030730161816,-1.4498008489608765,6.0,-1.4505985975265503,0.0002,0.0
6,-0.0002010030730161816,-1.4445867538452148,7.0,-1.4455986022949219,0.0002,0.0
7,-0.0002010030730161816,-1.439679503440857,8.0,-1.4405986070632935,0.0002,0.0
8,-0.0002010030730161816,-1.434772253036499,9.0,-1.435598611831665,0.0002,0.0
9,-0.0002010030730161816,-1.4298648834228516,10.0,-1.4305986166000366,0.0002,0.0
10,-0.0002010030730161816,-1.4246509075164795,11.0,-1.4255986213684082,0.0002,0.0
11,-0.0002010030730161816,-1.419743537902832,12.0,-1.4205986261367798,0.0002,0.0
12,-0.0002010030730161816,-1.4148362874984741,13.0,-1.4155986309051514,0.0002,0.0
13,-0.0002010030730161816,-1.409622311592102,14.0,-1.4105985164642334,0.0002,0.0
14,-0.0002010030730161816,-1.4047149419784546,15.0,-1.405598521232605,0.0002,0.0
15,-0.0002010030730161816,-1.3998076915740967,16.0,-1.4005985260009766,0.0002,0.0
16,-0.0002010030730161816,-1.3949003219604492,17.0,-1.3955985307693481,0.0002,0.0
17,-0.0002010030730161816,-1.3896863460540771,18.0,-1.3905985355377197,0.0002,0.0
18,-0.0002010030730161816,-1.3847790956497192,19.0,-1.3855985403060913,0.0002,0.0
19,-0.0002010030730161816,-1.3798717260360718,20.0,-1.380598545074463,0.0002,0.0
20,-0.0002010030730161816,-1.3746577501296997,21.0,-1.3755985498428345,0.0002,0.0
21,-0.0002010030730161816,-1.3697504997253418,22.0,-1.370598554611206,0.0002,0.0
22,-0.00020000933727715164,-1.3648431301116943,23.0,-1.3655985593795776,0.0002,0.0
23,-0.00019191230239812285,-1.3596291542053223,24.0,-1.3605985641479492,0.0002,0.0
24,-0.0001836434967117384,-1.3547219038009644,25.0,-1.3555985689163208,0.0002,0.0
25,-0.00017622120503801852,-1.349814534187317,26.0,-1.3505985736846924,0.0002,0.0
26,-0.0001684001908870414,-1.344907283782959,27.0,-1.345598578453064,0.0002,0.0
27,-0.00016033381689339876,-1.3396931886672974,28.0,-1.3405985832214355,0.0002,0.0
28,-0.0001530526060378179,-1.3347859382629395,29.0,-1.3355985879898071,0.0002,0.0
29,-0.00014605969772674143,-1.3298786878585815,30.0,-1.3305985927581787,0.0002,0.0
30,-0.00013817734725307673,-1.32466459274292,31.0,-1.3255985975265503,0.0002,0.0
31,-0.00013074891467113048,-1.319757342338562,32.0,-1.3205986022949219,0.0002,0.0
32,-0.00012400138075463474,-1.3148499727249146,33.0,-1.3155986070632935,0.0002,0.0
33,-0.00011651774548226967,-1.3099427223205566,34.0,-1.310598611831665,0.0002,0.0
34,-0.00010907091200351715,-1.3047287464141846,35.0,-1.3055986166000366,0.0002,0.0
35,-0.00010242152347927913,-1.299821376800537,36.0,-1.3005986213684082,0.0002,0.0
36,-9.532433614367619e-05,-1.2949141263961792,37.0,-1.2955986261367798,0.0002,0.0
37,-8.790817810222507e-05,-1.2897001504898071,38.0,-1.2905986309051514,0.0002,0.0
38,-8.122811414068565e-05,-1.2847927808761597,39.0,-1.285598635673523,0.0002,0.0
39,-7.456031744368374e-05,-1.2798855304718018,40.0,-1.280598521232605,0.0002,0.0
40,-6.720549572492018e-05,-1.2746714353561401,41.0,-1.2755985260009766,0.0002,0.0
41,-6.0421156376833096e-05,-1.2697641849517822,42.0,-1.2705985307693481,0.0002,0.0
42,-5.3992589528206736e-05,-1.2648569345474243,43.0,-1.2655985355377197,0.0002,0.0
43,-4.6895405830582604e-05,-1.2599495649337769,44.0,-1.2605985403060913,0.0002,0.0
44,-3.996384111815132e-05,-1.2547355890274048,45.0,-1.255598545074463,0.0002,0.0
45,-3.3639556932030246e-05,-1.2498283386230469,46.0,-1.2505985498428345,0.0002,0.0
46,-2.675093310244847e-05,-1.2449209690093994,47.0,-1.245598554611206,0.0002,0.0
47,-1.9666016669361852e-05,-1.2397069931030273,48.0,-1.2405985593795776,0.0002,0.0
48,-1.3206780749897007e-05,-1.2347996234893799,49.0,-1.2355985641479492,0.0002,0.0
49,-6.545119049405912e-06,-1.229892373085022,50.0,-1.2305985689163208,0.0002,0.0
50,6.072726819184027e-07,-1.22467839717865,51.0,-1.2255985736846924,0.0002,0.0
51,7.293470844160765e-06,-1.2197710275650024,52.0,-1.220598578453064,0.0002,0.0
52,1.3850852155883331e-05,-1.2148637771606445,53.0,-1.2155985832214355,0.0002,0.0
53,2.103391489072237e-05,-1.209956407546997,54.0,-1.2105985879898071,0.0002,0.0
54,2.802068593155127e-05,-1.204742431640625,55.0,-1.2055985927581787,0.0002,0.0
55,3.465780901024118e-05,-1.199835181236267,56.0,-1.2005985975265503,0.0002,0.0
56,4.188381353742443e-05,-1.1949278116226196,57.0,-1.1955986022949219,0.0002,0.0
57,4.907914262730628e-05,-1.1897138357162476,58.0,-1.1905986070632935,0.0002,0.0
58,5.595549737336114e-05,-1.1848065853118896,59.0,-1.185598611831665,0.0002,0.0
59,6.321830733213574e-05,-1.1798992156982422,60.0,-1.1805986166000366,0.0002,0.0
60,7.098411151673645e-05,-1.1746852397918701,61.0,-1.1755986213684082,0.0002,0.0
61,7.821624603820965e-05,-1.1697778701782227,62.0,-1.1705986261367798,0.0002,0.0
62,8.557719411328435e-05,-1.1648706197738647,63.0,-1.1655986309051514,0.0002,0.0
63,9.338594099972397e-05,-1.1599633693695068,64.0,-1.160598635673523,0.0002,0.0
64,0.00010088184353662655,-1.1550559997558594,65.0,-1.1555986404418945,0.0002,0.0
65,0.00010822439071489498,-1.1498420238494873,66.0,-1.1505985260009766,0.0002,0.0
66,0.00011606380576267838,-1.1449346542358398,67.0,-1.1455985307693481,0.0002,0.0
67,0.00012378666724544019,-1.1397206783294678,68.0,-1.1405985355377197,0.0002,0.0
68,0.0001312089734710753,-1.1348134279251099,69.0,-1.1355985403060913,0.0002,0.0
69,0.00013901157944928855,-1.1299060583114624,70.0,-1.130598545074463,0.0002,0.0
70,0.0001468571281293407,-1.1249988079071045,71.0,-1.1255985498428345,0.0002,0.0
71,0.00015430395433213562,-1.1197848320007324,72.0,-1.120598554611206,0.0002,0.0
72,0.00016195321222767234,-1.114877462387085,73.0,-1.1155985593795776,0.0002,0.0
73,0.00016985397087410092,-1.109970211982727,74.0,-1.1105985641479492,0.0002,0.0
74,0.0001774050761014223,-1.104756236076355,75.0,-1.1055985689163208,0.0002,0.0
75,0.00018491937953513116,-1.0998488664627075,76.0,-1.1005985736846924,0.0002,0.0
76,0.00019272812642157078,-1.0946348905563354,77.0,-1.095598578453064,0.0002,0.0
77,0.00020036511705256999,-1.089727520942688,78.0,-1.0905985832214355,0.0002,0.0
78,0.00020099693210795522,-1.08482027053833,79.0,-1.0855985879898071,0.0002,0.0
79,0.00020099693210795522,-1.0799130201339722,80.0,-1.0805985927581787,0.0002,0.0
80,0.00020099693210795522,-1.0746989250183105,81.0,-1.0755985975265503,0.0002,0.0
81,0.00020099693210795522,-1.0697916746139526,82.0,-1.0705986022949219,0.0002,0.0
82,0.00020099693210795522,-1.0648843050003052,83.0,-1.0655986070632935,0.0002,0.0
83,0.00020099693210795522,-1.059670329093933,84.0,-1.060598611831665,0.0002,0.0
84,0.00020099693210795522,-1.0547630786895752,85.0,-1.0555986166000366,0.0002,0.0
85,0.00020099693210795522,-1.0498557090759277,86.0,-1.0505986213684082,0.0002,0.0
86,0.00020099693210795522,-1.0446417331695557,87.0,-1.0455986261367798,0.0002,0.0
87,0.00020099693210795522,-1.0397344827651978,88.0,-1.0405986309051514,0.0002,0.0
88,0.00020099693210795522,-1.0348271131515503,89.0,-1.035598635673523,0.0002,0.0
89,0.00020099693210795522,-1.0299198627471924,90.0,-1.0305986404418945,0.0002,0.0
90,0.00020099693210795522,-1.0247057676315308,91.0,-1.0255985260009766,0.0002,0.0
91,0.00020099693210795522,-1.0197985172271729,92.0,-1.0205985307693481,0.0002,0.0
92,0.00020099693210795522,-1.014891266822815,93.0,-1.0155985355377197,0.0002,0.0
93,0.00020099693210795522,-1.0099838972091675,94.0,-1.0105985403060913,0.0002,0.0
94,0.00020099693210795522,-1.0050766468048096,95.0,-1.005598545074463,0.0002,0.0
95,0.00020099693210795522,-0.9998626112937927,96.0,-1.0005985498428345,0.0002,0.0
96,0.00020099693210795522,-0.99495530128479,97.0,-0.995598554611206,0.0002,0.0
97,0.00020099693210795522,-0.9900479912757874,98.0,-0.9905985593795776,0.0002,0.0
98,0.00020099693210795522,-0.9848340153694153,99.0,-0.9855985641479492,0.0002,0.0
99,0.00020099693210795522,-0.9799267053604126,100.0,-0.9805985689163208,0.0002,0.0
100,0.00020099693210795522,-0.9747126698493958,101.0,-0.9755985736846924,0.0002,0.0
