,current,potential,elapsed_time,applied_potential,current_range,segment
0,-2.718645555432886e-05,-0.9403615593910217,1.0,-0.9410094618797302,0.0002,0.0
1,-1.7568145267432556e-05,-0.9354543089866638,2.0,-0.9360094666481018,0.0002,0.0
2,-1.4145301975077018e-05,-0.9305469989776611,3.0,-0.9310094714164734,0.0002,0.0
3,-1.207810146297561e-05,-0.9256396889686584,4.0,-0.926009476184845,0.0002,0.0
4,-1.0924885827989783e-05,-0.9204256534576416,5.0,-0.9210094809532166,0.0002,0.0
5,-1.0010900950874202e-05,-0.9155183434486389,6.0,-0.9160094857215881,0.0002,0.0
6,-9.066245183930732e-06,-0.910611093044281,7.0,-0.9110094904899597,0.0002,0.0
7,-8.416027412749827e-06,-0.9053970575332642,8.0,-0.9060094356536865,0.0002,0.0
8,-7.919163181213662e-06,-0.9004897475242615,9.0,-0.9010094404220581,0.0002,0.0
9,-7.2321413426834624e-06,-0.8955824375152588,10.0,-0.8960094451904297,0.0002,0.0
10,-6.6493994381744415e-06,-0.8903684616088867,11.0,-0.8910094499588013,0.0002,0.0
11,-6.312022378551774e-06,-0.885461151599884,12.0,-0.8860094547271729,0.0002,0.0
12,-5.821292234031716e-06,-0.8805538415908813,13.0,-0.8810094594955444,0.0002,0.0
13,-5.318293915479444e-06,-0.8753398656845093,14.0,-0.876009464263916,0.0002,0.0
14,-5.005453203921206e-06,-0.8704325556755066,15.0,-0.8710094690322876,0.0002,0.0
15,-4.6558079702663235e-06,-0.8655252456665039,16.0,-0.8660094738006592,0.0002,0.0
16,-4.189614628558047e-06,-0.8603112101554871,17.0,-0.8610094785690308,0.0002,0.0
17,-3.882908004015917e-06,-0.8554039001464844,18.0,-0.8560094833374023,0.0002,0.0
18,-3.6682135942101013e-06,-0.8504966497421265,19.0,-0.8510094881057739,0.0002,0.0
19,-3.2940320124907885e-06,-0.8455893397331238,20.0,-0.8460094928741455,0.0002,0.0
20,-3.0057281037443317e-06,-0.8406820297241211,21.0,-0.8410094380378723,0.0002,0.0
21,-2.864643192879157e-06,-0.8354679942131042,22.0,-0.8360094428062439,0.0002,0.0
22,-2.5886074581649154e-06,-0.8305606842041016,23.0,-0.8310094475746155,0.0002,0.0
23,-2.3309739844989963e-06,-0.8253467082977295,24.0,-0.8260094523429871,0.0002,0.0
24,-2.214425649071927e-06,-0.8204393982887268,25.0,-0.8210094571113586,0.0002,0.0
25,-2.0610725641745375e-06,-0.8155320882797241,26.0,-0.8160094618797302,0.0002,0.0
26,-1.8095732912115636e-06,-0.810318112373352,27.0,-0.8110094666481018,0.0002,0.0
27,-1.7052931298167096e-06,-0.8054108023643494,28.0,-0.8060094714164734,0.0002,0.0
28,-1.6439518049082835e-06,-0.8005034923553467,29.0,-0.801009476184845,0.0002,0.0
29,-1.435391595805413e-06,-0.7952894568443298,30.0,-0.7960094809532166,0.0002,0.0
30,-1.3127090596753987e-06,-0.7903822064399719,31.0,-0.7910094857215881,0.0002,0.0
31,-1.269770109502133e-06,-0.7854748964309692,32.0,-0.7860094904899597,0.0002,0.0
32,-1.1041487368856906e-06,-0.7805675864219666,33.0,-0.7810094356536865,0.0002,0.0
33,-9.507955383014632e-07,-0.7753535509109497,34.0,-0.7760094404220581,0.0002,0.0
34,-9.139907888311427e-07,-0.7704463005065918,35.0,-0.7710094451904297,0.0002,0.0
35,-7.974423397172359e-07,-0.7655389904975891,36.0,-0.7660094499588013,0.0002,0.0
36,-6.502233418359538e-07,-0.7603249549865723,37.0,-0.7610094547271729,0.0002,0.0
37,-5.888820737709466e-07,-0.7554176449775696,38.0,-0.7560094594955444,0.0002,0.0
38,-5.21406661846413e-07,-0.7505103349685669,39.0,-0.751009464263916,0.0002,0.0
39,-3.128463390567049e-07,-0.745603084564209,40.0,-0.7460094690322876,0.0002,0.0
40,-1.7176142819153029e-07,-0.7403890490531921,41.0,-0.7410094738006592,0.0002,0.0
41,-1.1042015302109576e-07,-0.7354817390441895,42.0,-0.7360094785690308,0.0002,0.0
42,1.0427428520642934e-07,-0.7305744290351868,43.0,-0.7310094833374023,0.0002,0.0
43,3.189687163285271e-07,-0.7253604531288147,44.0,-0.7260094881057739,0.0002,0.0
44,4.72321886491045e-07,-0.720453143119812,45.0,-0.7210094928741455,0.0002,0.0
45,7.544917366431036e-07,-0.7155458331108093,46.0,-0.7160094380378723,0.0002,0.0
46,1.0796004517032998e-06,-0.7103318572044373,47.0,-0.7110094428062439,0.0002,0.0
47,1.3495019857145962e-06,-0.7054245471954346,48.0,-0.7060094475746155,0.0002,0.0
48,1.6746107576182112e-06,-0.7005172371864319,49.0,-0.7010094523429871,0.0002,0.0
49,2.1039995772298425e-06,-0.695303201675415,50.0,-0.6960094571113586,0.0002,0.0
50,2.5701931463117944e-06,-0.6903958916664124,51.0,-0.6910094618797302,0.0002,0.0
51,3.0670576052216347e-06,-0.6854886412620544,52.0,-0.6860094666481018,0.0002,0.0
52,3.6375313356984407e-06,-0.6805813312530518,53.0,-0.6810094714164734,0.0002,0.0
53,4.281614565115888e-06,-0.6753672957420349,54.0,-0.676009476184845,0.0002,0.0
54,4.993173206457868e-06,-0.6704599857330322,55.0,-0.6710094809532166,0.0002,0.0
55,5.698597760783741e-06,-0.6652460098266602,56.0,-0.6660094857215881,0.0002,0.0
56,6.453095465985825e-06,-0.6603386998176575,57.0,-0.6610094904899597,0.0002,0.0
57,7.342543995036976e-06,-0.6554313898086548,58.0,-0.6560094952583313,0.0002,0.0
58,8.176784831448458e-06,-0.6505240797996521,59.0,-0.6510094404220581,0.0002,0.0
59,9.060099728230853e-06,-0.64531010389328,60.0,-0.6460094451904297,0.0002,0.0
60,1.0102900887432043e-05,-0.6404027938842773,61.0,-0.6410094499588013,0.0002,0.0
61,1.1108897524536587e-05,-0.6354954838752747,62.0,-0.6360094547271729,0.0002,0.0
62,1.1986077879555523e-05,-0.630588173866272,63.0,-0.6310094594955444,0.0002,0.0
63,1.316382986260578e-05,-0.6253741979598999,64.0,-0.626009464263916,0.0002,0.0
64,1.4470399037236348e-05,-0.6204668879508972,65.0,-0.6210094690322876,0.0002,0.0
65,1.5494799299631268e-05,-0.6155595779418945,66.0,-0.6160094738006592,0.0002,0.0
66,1.65744040714344e-05,-0.6103455424308777,67.0,-0.6110094785690308,0.0002,0.0
67,1.808953493309673e-05,-0.605438232421875,68.0,-0.6060094833374023,0.0002,0.0
68,1.9150738808093593e-05,-0.6005309820175171,69.0,-0.6010094881057739,0.0002,0.0
69,2.0267149011488073e-05,-0.5953169465065002,70.0,-0.5960094928741455,0.0002,0.0
70,2.200310700573027e-05,-0.5904096364974976,71.0,-0.5910094976425171,0.0002,0.0
71,2.3708395019639283e-05,-0.5855023264884949,72.0,-0.5860094428062439,0.0002,0.0
72,2.480640250723809e-05,-0.5802883505821228,73.0,-0.5810094475746155,0.0002,0.0
73,2.6701847673393786e-05,-0.5753810405731201,74.0,-0.5760094523429871,0.0002,0.0
74,2.8670903702732176e-05,-0.5704737305641174,75.0,-0.5710094571113586,0.0002,0.0
75,2.9762777558062226e-05,-0.5652597546577454,76.0,-0.5660094618797302,0.0002,0.0
76,3.140672197332606e-05,-0.5603524446487427,77.0,-0.5610094666481018,0.0002,0.0
77,3.3768363209674135e-05,-0.55544513463974,78.0,-0.5560094714164734,0.0002,0.0
78,3.4927710657939315e-05,-0.5505378246307373,79.0,-0.551009476184845,0.0002,0.0
79,3.658392597571947e-05,-0.5453237891197205,80.0,-0.5460094809532166,0.0002,0.0
80,3.93565533158835e-05,-0.5404165387153625,81.0,-0.5410094857215881,0.0002,0.0
81,4.1209059418179095e-05,-0.5355092287063599,82.0,-0.5360094904899597,0.0002,0.0
82,4.236227323417552e-05,-0.5306019186973572,83.0,-0.5310094952583313,0.0002,0.0
83,4.494473978411406e-05,-0.5253878831863403,84.0,-0.5260095000267029,0.0002,0.0
84,4.75578781333752e-05,-0.5204806327819824,85.0,-0.5210094451904297,0.0002,0.0
85,4.8508667532587424e-05,-0.5155733227729797,86.0,-0.5160094499588013,0.0002,0.0
86,5.058200258645229e-05,-0.5103592872619629,87.0,-0.5110094547271729,0.0002,0.0
87,5.3894433222012594e-05,-0.5054519772529602,88.0,-0.5060094594955444,0.0002,0.0
88,5.4888161685084924e-05,-0.5005446672439575,89.0,-0.501009464263916,0.0002,0.0
89,5.6384888011962175e-05,-0.49533069133758545,90.0,-0.4960094690322876,0.0002,0.0
90,6.0114438383607194e-05,-0.49042338132858276,91.0,-0.4910094738006592,0.0002,0.0
91,6.160503107821569e-05,-0.4855160713195801,92.0,-0.48600947856903076,0.0002,0.0
92,6.258035864448175e-05,-0.4803020656108856,93.0,-0.48100948333740234,0.0002,0.0
93,6.600320193683729e-05,-0.4753947854042053,94.0,-0.47600945830345154,0.0002,0.0
94,6.870835204608738e-05,-0.47048747539520264,95.0,-0.4710094630718231,0.0002,0.0
95,6.9082532718312e-05,-0.4652734696865082,96.0,-0.4660094678401947,0.0002,0.0
96,7.202690903795883e-05,-0.4603661596775055,97.0,-0.4610094726085663,0.0002,0.0
97,7.586074207210913e-05,-0.4554588496685028,98.0,-0.45600947737693787,0.0002,0.0
98,7.604476559208706e-05,-0.4505515694618225,99.0,-0.45100948214530945,0.0002,0.0
99,7.774391997372732e-05,-0.44533756375312805,100.0,-0.44600948691368103,0.0002,0.0
100,8.241811883635819e-05,-0.44043025374412537,101.0,-0.4410094618797302,0.0002,0.0
