,current,potential,elapsed_time,applied_potential,current_range,segment
0,-0.0003357821551617235,-1.29859459400177,0.017333,-1.2999999523162842,0.002,0.0
1,-0.0003235752519685775,-1.2970610857009888,0.034666,-1.298699975013733,0.002,0.0
2,-0.0003214896423742175,-1.2958341836929321,0.051999,-1.2973999977111816,0.002,0.0
3,-0.0003205081738997251,-1.2943006753921509,0.069332,-1.2960999011993408,0.002,0.0
4,-0.0003195267345290631,-1.2930738925933838,0.086665,-1.2947999238967896,0.002,0.0
5,-0.00031842259340919554,-1.2921537160873413,0.103998,-1.2934999465942383,0.002,0.0
6,-0.0003175024758093059,-1.290313482284546,0.121331,-1.292199969291687,0.002,0.0
7,-0.0003163983055856079,-1.2890866994857788,0.138664,-1.2908999919891357,0.002,0.0
8,-0.0003151714918203652,-1.2881665229797363,0.155997,-1.289599895477295,0.002,0.0
9,-0.00031369930366054177,-1.286326289176941,0.17333,-1.2882999181747437,0.002,0.0
10,-0.00031222711550071836,-1.2857129573822021,0.190663,-1.2869999408721924,0.002,0.0
11,-0.0003113683487754315,-1.284179449081421,0.207996,-1.2856999635696411,0.002,0.0
12,-0.00030940541182644665,-1.282339096069336,0.225329,-1.2843999862670898,0.002,0.0
13,-0.0003084239433519542,-1.2811123132705688,0.242662,-1.2831000089645386,0.002,0.0
14,-0.00030664505902677774,-1.280192255973816,0.259995,-1.2817999124526978,0.002,0.0
15,-0.0003052342217415571,-1.2789653539657593,0.277328,-1.2804999351501465,0.002,0.0
16,-0.0003039460279978812,-1.277431845664978,0.294661,-1.2791999578475952,0.002,0.0
17,-0.00030259654158726335,-1.276205062866211,0.311994,-1.277899980545044,0.002,0.0
18,-0.000301431049592793,-1.2752848863601685,0.329327,-1.2766000032424927,0.002,0.0
19,-0.0003002042358275503,-1.273444652557373,0.34666,-1.2752999067306519,0.002,0.0
20,-0.00029910009470768273,-1.272217869758606,0.363993,-1.2739999294281006,0.002,0.0
21,-0.0002978732518386096,-1.2712976932525635,0.381326,-1.2726999521255493,0.002,0.0
22,-0.0002968304615933448,-1.2700709104537964,0.398659,-1.271399974822998,0.002,0.0
23,-0.00029511289903894067,-1.268230676651001,0.415992,-1.2700999975204468,0.002,0.0
24,-0.00029419278143905103,-1.2670038938522339,0.433325,-1.268799901008606,0.002,0.0
25,-0.00029290461679920554,-1.2657769918441772,0.450658,-1.2674999237060547,0.002,0.0
26,-0.0002919231483247131,-1.2645502090454102,0.467991,-1.2661999464035034,0.002,0.0
27,-0.0002910030307248235,-1.2627099752426147,0.485324,-1.2648999691009521,0.002,0.0
28,-0.0002897762169595808,-1.261483073234558,0.502657,-1.2635999917984009,0.002,0.0
29,-0.0002884267014451325,-1.2608697414398193,0.51999,-1.26229989528656,0.002,0.0
30,-0.0002868931624107063,-1.259336233139038,0.537323,-1.2609999179840088,0.002,0.0
31,-0.0002856663486454636,-1.2578026056289673,0.554656,-1.2596999406814575,0.002,0.0
32,-0.0002843781840056181,-1.2568825483322144,0.571989,-1.2583999633789062,0.002,0.0
33,-0.00028345806640572846,-1.255042314529419,0.589322,-1.257099986076355,0.002,0.0
34,-0.0002821085508912802,-1.2541221380233765,0.606655,-1.2558000087738037,0.002,0.0
35,-0.0002810657606460154,-1.2525886297225952,0.623988,-1.254499912261963,0.002,0.0
36,-0.0002800229412969202,-1.2516685724258423,0.641321,-1.2531999349594116,0.002,0.0
37,-0.0002789801510516554,-1.2501349449157715,0.658654,-1.2518999576568604,0.002,0.0
38,-0.00027787600993178785,-1.2486014366149902,0.675987,-1.250599980354309,0.002,0.0
39,-0.0002766491670627147,-1.2476813793182373,0.69332,-1.2493000030517578,0.002,0.0
40,-0.00027579040033742785,-1.2461477518081665,0.710653,-1.247999906539917,0.002,0.0
41,-0.0002747476100921631,-1.2452276945114136,0.727986,-1.2466999292373657,0.002,0.0
42,-0.0002741341886576265,-1.2436941862106323,0.745319,-1.2453999519348145,0.002,0.0
43,-0.000273336743703112,-1.2424672842025757,0.762652,-1.2440999746322632,0.002,0.0
44,-0.0002725392987485975,-1.2412405014038086,0.779985,-1.242799997329712,0.002,0.0
45,-0.00027168053202331066,-1.2400137186050415,0.797318,-1.241499900817871,0.002,0.0
46,-0.00027069906354881823,-1.2384800910949707,0.814651,-1.2401999235153198,0.002,0.0
47,-0.00026867480482906103,-1.2363332509994507,0.849317,-1.2375999689102173,0.002,0.0
48,-0.00026750934193842113,-1.2347996234893799,0.86665,-1.236299991607666,0.002,0.0
49,-0.00026658919523470104,-1.2332661151885986,0.883983,-1.2349998950958252,0.002,0.0
50,-0.0002656690776348114,-1.2320393323898315,0.901316,-1.233699917793274,0.002,0.0
51,-0.00026474896003492177,-1.2305058240890503,0.918649,-1.2323999404907227,0.002,0.0
52,-0.00026382884243503213,-1.2292789220809937,0.935982,-1.2310999631881714,0.002,0.0
53,-0.00026204995810985565,-1.2280521392822266,0.953315,-1.2297999858856201,0.002,0.0
54,-0.0002609458169899881,-1.2265186309814453,0.970648,-1.2285000085830688,0.002,0.0
55,-0.0002594122779555619,-1.2255984544754028,0.987981,-1.227199912071228,0.002,0.0
56,-0.0002581241133157164,-1.2243716716766357,1.005314,-1.2258999347686768,0.002,0.0
57,-0.00025695862132124603,-1.223144769668579,1.022647,-1.2245999574661255,0.002,0.0
58,-0.00025573180755600333,-1.221917986869812,1.03998,-1.2232999801635742,0.002,0.0
59,-0.000254566315561533,-1.2200777530670166,1.057313,-1.222000002861023,0.002,0.0
60,-0.00025358484708704054,-1.2188509702682495,1.074646,-1.2206999063491821,0.002,0.0
61,-0.0002521126589272171,-1.2182375192642212,1.091979,-1.2193999290466309,0.002,0.0
62,-0.0002509471960365772,-1.21670401096344,1.109312,-1.2180999517440796,0.002,0.0
63,-0.0002493523061275482,-1.2154772281646729,1.126645,-1.2167999744415283,0.002,0.0
64,-0.00024824816500768065,-1.213636875152588,1.143978,-1.215499997138977,0.002,0.0
65,-0.00024751207092776895,-1.2121033668518066,1.161311,-1.2141999006271362,0.002,0.0
66,-0.00024628525716252625,-1.2111833095550537,1.178644,-1.212899923324585,0.002,0.0
67,-0.0002456104848533869,-1.2096498012542725,1.195977,-1.2115999460220337,0.002,0.0
68,-0.0002443223202135414,-1.2090363502502441,1.21331,-1.2102999687194824,0.002,0.0
69,-0.00024364757700823247,-1.207502841949463,1.230643,-1.2089999914169312,0.002,0.0
70,-0.00024248208501376212,-1.2062759399414062,1.247976,-1.2076998949050903,0.002,0.0
71,-0.0002417459909338504,-1.204742431640625,1.265309,-1.206399917602539,0.002,0.0
72,-0.00024070320068858564,-1.203515648841858,1.282642,-1.2050999402999878,0.002,0.0
73,-0.00023978306853678077,-1.2016754150390625,1.299975,-1.2037999629974365,0.002,0.0
74,-0.00023892430181149393,-1.2010619640350342,1.317308,-1.2024999856948853,0.002,0.0
75,-0.0002380041842116043,-1.199835181236267,1.334641,-1.201200008392334,0.002,0.0
76,-0.0002372680901316926,-1.1979949474334717,1.351974,-1.1998999118804932,0.002,0.0
77,-0.00023610259813722223,-1.196768045425415,1.369307,-1.198599934577942,0.002,0.0
78,-0.00023475309717468917,-1.195541262626648,1.38664,-1.1972999572753906,0.002,0.0
79,-0.0002334035816602409,-1.1943144798278809,1.403973,-1.1959999799728394,0.002,0.0
80,-0.00023223810421768576,-1.1933943033218384,1.421306,-1.194700002670288,0.002,0.0
81,-0.00023094993957784027,-1.191554069519043,1.438639,-1.1933999061584473,0.002,0.0
82,-0.00022966176038607955,-1.19063401222229,1.455972,-1.192099928855896,0.002,0.0
83,-0.000228557619266212,-1.188793659210205,1.473305,-1.1907999515533447,0.002,0.0
84,-0.00022739214182365686,-1.1878736019134521,1.490638,-1.1894999742507935,0.002,0.0
85,-0.0002265333605464548,-1.186340093612671,1.507971,-1.1881999969482422,0.002,0.0
86,-0.00022506117238663137,-1.1851131916046143,1.525304,-1.1868999004364014,0.002,0.0
87,-0.00022426372743211687,-1.1838864088058472,1.542637,-1.18559992313385,0.002,0.0
88,-0.00022260751575231552,-1.18265962600708,1.55997,-1.1842999458312988,0.002,0.0
89,-0.00022150337463244796,-1.1817394495010376,1.577303,-1.1829999685287476,0.002,0.0
90,-0.00022095130407251418,-1.1798992156982422,1.594636,-1.1816999912261963,0.002,0.0
91,-0.0002201538736699149,-1.178365707397461,1.611969,-1.1803998947143555,0.002,0.0
92,-0.00021923375607002527,-1.1774455308914185,1.629302,-1.1790999174118042,0.002,0.0
93,-0.00021825228759553283,-1.1759120225906372,1.646635,-1.177799940109253,0.002,0.0
94,-0.00021598266903311014,-1.173458456993103,1.681301,-1.1751999855041504,0.002,0.0
95,-0.00021512388775590807,-1.1722315549850464,1.698634,-1.1739000082015991,0.002,0.0
96,-0.00021359034872148186,-1.1710047721862793,1.715967,-1.1725999116897583,0.002,0.0
97,-0.00021279291831888258,-1.169471263885498,1.7333,-1.171299934387207,0.002,0.0
98,-0.0002114434028044343,-1.1685510873794556,1.750633,-1.1699999570846558,0.002,0.0
99,-0.00021052328520454466,-1.1670175790786743,1.767966,-1.1686999797821045,0.002,0.0
100,-0.00020935780776198953,-1.165484070777893,1.785299,-1.1674000024795532,0.002,0.0
101,-0.0002077015960821882,-1.1642571687698364,1.802632,-1.1660999059677124,0.002,0.0
102,-0.00020672012760769576,-1.1630303859710693,1.819965,-1.1647999286651611,0.002,0.0
103,-0.0002050639159278944,-1.1618036031723022,1.837298,-1.1634999513626099,0.002,0.0
104,-0.0002040824620053172,-1.1602699756622314,1.854631,-1.1621999740600586,0.002,0.0
105,-0.000202548922970891,-1.1593499183654785,1.871964,-1.1608999967575073,0.002,0.0
106,-0.00020175149256829172,-1.1581231355667114,1.889297,-1.1595999002456665,0.002,0.0
107,-0.00020009528088849038,-1.157202959060669,1.90663,-1.1582999229431152,0.002,0.0
108,-0.00019929783593397588,-1.1550559997558594,1.923963,-1.156999945640564,0.002,0.0
109,-0.00019800967129413038,-1.1538292169570923,1.941296,-1.1556999683380127,0.002,0.0
110,-0.00019678284297697246,-1.1526023149490356,1.958629,-1.1543999910354614,0.002,0.0
111,-0.00019604674889706075,-1.1513755321502686,1.975962,-1.1530998945236206,0.002,0.0
112,-0.00019426785001996905,-1.1501487493515015,1.993295,-1.1517999172210693,0.002,0.0
113,-0.00019353175594005734,-1.1489218473434448,2.010628,-1.150499939918518,0.002,0.0
114,-0.0001923662784975022,-1.1476950645446777,2.027961,-1.1491999626159668,0.002,0.0
115,-0.00019175285706296563,-1.1458548307418823,2.045294,-1.1478999853134155,0.002,0.0
116,-0.00019077140314038843,-1.1449346542358398,2.062627,-1.1466000080108643,0.002,0.0
117,-0.00019021933258045465,-1.144014596939087,2.07996,-1.1452999114990234,0.002,0.0
118,-0.000189299214980565,-1.1424810886383057,2.097293,-1.1439999341964722,0.002,0.0
119,-0.00018825641018338501,-1.1418676376342773,2.114626,-1.142699956893921,0.002,0.0
120,-0.00018739762890618294,-1.140027403831482,2.131959,-1.1413999795913696,0.002,0.0
121,-0.00018641617498360574,-1.1381871700286865,2.149292,-1.1401000022888184,0.002,0.0
122,-0.00018568008090369403,-1.1369603872299194,2.166625,-1.1387999057769775,0.002,0.0
123,-0.00018451458890922368,-1.1354267597198486,2.183958,-1.1374999284744263,0.002,0.0
124,-0.00018408520554658026,-1.1345067024230957,2.201291,-1.136199951171875,0.002,0.0
125,-0.0001829197135521099,-1.1329731941223145,2.218624,-1.1348999738693237,0.002,0.0
126,-0.0001816315489122644,-1.132053017616272,2.235957,-1.1335999965667725,0.002,0.0
127,-0.00018046607146970928,-1.1302127838134766,2.25329,-1.1322999000549316,0.002,0.0
128,-0.00017905521963257343,-1.1295994520187378,2.270623,-1.1309999227523804,0.002,0.0
129,-0.00017807376570999622,-1.1277590990066528,2.287956,-1.129699945449829,0.002,0.0
130,-0.00017647889035288244,-1.1265323162078857,2.305289,-1.1283999681472778,0.002,0.0
131,-0.0001758041325956583,-1.1256122589111328,2.322622,-1.1270999908447266,0.002,0.0
132,-0.00017433194443583488,-1.1243853569030762,2.339955,-1.1257998943328857,0.002,0.0
133,-0.00017347316315863281,-1.1225451231002808,2.357288,-1.1244999170303345,0.002,0.0
134,-0.00017218499851878732,-1.1216250658035278,2.374621,-1.1231999397277832,0.002,0.0
135,-0.00017120354459621012,-1.1203981637954712,2.391954,-1.121899962425232,0.002,0.0
136,-0.00017028341244440526,-1.1185579299926758,2.409287,-1.1205999851226807,0.002,0.0
137,-0.0001686885516392067,-1.1176378726959229,2.42662,-1.1193000078201294,0.002,0.0
138,-0.000167952457559295,-1.1164109706878662,2.443953,-1.1179999113082886,0.002,0.0
139,-0.00016703232540749013,-1.1151841878890991,2.461286,-1.1166999340057373,0.002,0.0
140,-0.00016629623132757843,-1.1136506795883179,2.478619,-1.115399956703186,0.002,0.0
141,-0.00016506941756233573,-1.1124238967895508,2.495952,-1.1140999794006348,0.002,0.0
142,-0.00016445599612779915,-1.11089026927948,2.513285,-1.1128000020980835,0.002,0.0
143,-0.00016316783148795366,-1.1093567609786987,2.530618,-1.1114999055862427,0.002,0.0
144,-0.0001623090502107516,-1.1084367036819458,2.547951,-1.1101999282836914,0.002,0.0
145,-0.0001612662454135716,-1.106903076171875,2.565284,-1.1088999509811401,0.002,0.0
146,-0.00016010076797101647,-1.105983018875122,2.582617,-1.1075999736785889,0.002,0.0
147,-0.0001589966268511489,-1.104756236076355,2.59995,-1.1062999963760376,0.002,0.0
148,-0.00015776979853399098,-1.1041427850723267,2.617283,-1.1049998998641968,0.002,0.0
149,-0.0001574630878167227,-1.101689100265503,2.634616,-1.1036999225616455,0.002,0.0
150,-0.00015611358685418963,-1.1004623174667358,2.651949,-1.1023999452590942,0.002,0.0
151,-0.00015494809485971928,-1.0995421409606934,2.669282,-1.101099967956543,0.002,0.0
152,-0.00015365993021987379,-1.0983153581619263,2.686615,-1.0997999906539917,0.002,0.0
153,-0.00015267847629729658,-1.0970885753631592,2.703948,-1.0984998941421509,0.002,0.0
154,-0.00015126762446016073,-1.0952483415603638,2.721281,-1.0971999168395996,0.002,0.0
155,-0.00015040884318295866,-1.0940214395523071,2.738614,-1.0958999395370483,0.002,0.0
156,-0.00014942738926038146,-1.0931013822555542,2.755947,-1.094599962234497,0.002,0.0
157,-0.0001485686079831794,-1.0909544229507446,2.77328,-1.0932999849319458,0.002,0.0
158,-0.00014746446686331183,-1.0906476974487305,2.790613,-1.0920000076293945,0.002,0.0
159,-0.00014636032574344426,-1.0894209146499634,2.807946,-1.0906999111175537,0.002,0.0
160,-0.00014568556798622012,-1.087580680847168,2.825279,-1.0893999338150024,0.002,0.0
161,-0.000144520090543665,-1.0872739553451538,2.842612,-1.0880999565124512,0.002,0.0
162,-0.00014359997294377536,-1.0851269960403442,2.859945,-1.0867999792099,0.002,0.0
163,-0.00014274119166657329,-1.083593487739563,2.877278,-1.0855000019073486,0.002,0.0
164,-0.00014188241038937122,-1.0826733112335205,2.894611,-1.0841999053955078,0.002,0.0
165,-0.00014126900350674987,-1.0814465284347534,2.911944,-1.0828999280929565,0.002,0.0
166,-0.00014047155855223536,-1.0799130201339722,2.929277,-1.0815999507904053,0.002,0.0
167,-0.00013973546447232366,-1.0786861181259155,2.94661,-1.080299973487854,0.002,0.0
168,-0.00013887668319512159,-1.0774593353271484,2.963943,-1.0789999961853027,0.002,0.0
169,-0.00013820193998981267,-1.075619101524353,2.981276,-1.077699899673462,0.002,0.0
170,-0.00013740449503529817,-1.0743921995162964,2.998609,-1.0763999223709106,0.002,0.0
171,-0.0001366070646326989,-1.0728586912155151,3.015942,-1.0750999450683594,0.002,0.0
172,-0.00013562559615820646,-1.0719386339187622,3.033275,-1.073799967765808,0.002,0.0
173,-0.0001348281657556072,-1.0707117319107056,3.050608,-1.0724999904632568,0.002,0.0
174,-0.00013421475887298584,-1.0697916746139526,3.067941,-1.071199893951416,0.002,0.0
175,-0.00013335597759578377,-1.0682581663131714,3.085274,-1.0698999166488647,0.002,0.0
176,-0.00013231317279860377,-1.067337989807129,3.102607,-1.0685999393463135,0.002,0.0
177,-0.00013096367183607072,-1.0661112070083618,3.11994,-1.0672999620437622,0.002,0.0
178,-0.00012985951616428792,-1.0639642477035522,3.137273,-1.065999984741211,0.002,0.0
179,-0.0001286940387217328,-1.063350796699524,3.154606,-1.0647000074386597,0.002,0.0
180,-0.0001277125847991556,-1.0615105628967285,3.171939,-1.0633999109268188,0.002,0.0
181,-0.0001266084291273728,-1.0602837800979614,3.189272,-1.0620999336242676,0.002,0.0
182,-0.00012581099872477353,-1.0587502717971802,3.206605,-1.0607999563217163,0.002,0.0
183,-0.0001248908811248839,-1.0575233697891235,3.223938,-1.059499979019165,0.002,0.0
184,-0.00012403209984768182,-1.0566033124923706,3.241271,-1.0582000017166138,0.002,0.0
185,-0.00012268259888514876,-1.0547630786895752,3.258604,-1.056899905204773,0.002,0.0
186,-0.00012163979408796877,-1.0541496276855469,3.275937,-1.0555999279022217,0.002,0.0
187,-0.00012041296577081084,-1.0526161193847656,3.29327,-1.0542999505996704,0.002,0.0
188,-0.00011961552809225395,-1.0513893365859985,3.310603,-1.0529999732971191,0.002,0.0
189,-0.00011918614472961053,-1.0498557090759277,3.327936,-1.0516999959945679,0.002,0.0
190,-0.00011826601985376328,-1.0489356517791748,3.345269,-1.050399899482727,0.002,0.0
191,-0.0001177139492938295,-1.0470954179763794,3.362602,-1.0490999221801758,0.002,0.0
192,-0.00011667115177260712,-1.046175241470337,3.379935,-1.0477999448776245,0.002,0.0
193,-0.00011593505769269541,-1.0449484586715698,3.397268,-1.0464999675750732,0.002,0.0
194,-0.00011507627641549334,-1.0434149503707886,3.414601,-1.045199990272522,0.002,0.0
195,-0.00011440152593422681,-1.042188048362732,3.431934,-1.0438998937606812,0.002,0.0
196,-0.000113420064735692,-1.0400410890579224,3.449267,-1.0425999164581299,0.002,0.0
197,-0.00011286799417575821,-1.0397344827651978,3.4666,-1.0412999391555786,0.002,0.0
198,-0.00011170250945724547,-1.038200855255127,3.483933,-1.0399999618530273,0.002,0.0
199,-0.00011127311881864443,-1.0369740724563599,3.501266,-1.038699984550476,0.002,0.0
200,-0.00011047568114008754,-1.036054015159607,3.518599,-1.0374000072479248,0.002,0.0
201,-0.00010918751650024205,-1.0342137813568115,3.535932,-1.036099910736084,0.002,0.0
202,-0.00010863544594030827,-1.033293604850769,3.553265,-1.0347999334335327,0.002,0.0
203,-0.00010753130482044071,-1.0314533710479736,3.570598,-1.0334999561309814,0.002,0.0
204,-0.00010685654706321657,-1.0308399200439453,3.587931,-1.0321999788284302,0.002,0.0
205,-0.00010581374954199418,-1.029306411743164,3.605264,-1.030900001525879,0.002,0.0
206,-0.00010513899178477004,-1.028079628944397,3.622597,-1.029599905014038,0.002,0.0
207,-0.0001042188741848804,-1.0265461206436157,3.63993,-1.0282999277114868,0.002,0.0
208,-0.00010385082714492455,-1.025319218635559,3.657263,-1.0269999504089355,0.002,0.0
209,-0.00010299204586772248,-1.024092435836792,3.674596,-1.0256999731063843,0.002,0.0
210,-0.00010219460818916559,-1.0225589275360107,3.691929,-1.024399995803833,0.002,0.0
211,-0.00010133583418792114,-1.021332025527954,3.709262,-1.0230998992919922,0.002,0.0
212,-0.00010017034946940839,-1.020105242729187,3.726595,-1.021799921989441,0.002,0.0
213,-9.955693531082943e-05,-1.01887845993042,3.743928,-1.0204999446868896,0.002,0.0
214,-9.894352115225047e-05,-1.0179582834243774,3.761261,-1.0191999673843384,0.002,0.0
215,-9.857547411229461e-05,-1.0164247751235962,3.778594,-1.017899990081787,0.002,0.0
216,-9.78393800323829e-05,-1.0145845413208008,3.795927,-1.0165998935699463,0.002,0.0
217,-9.740998939378187e-05,-1.0133576393127441,3.81326,-1.015299916267395,0.002,0.0
218,-9.66125589911826e-05,-1.0124375820159912,3.830593,-1.0139999389648438,0.002,0.0
219,-9.60604811552912e-05,-1.01090407371521,3.847926,-1.0126999616622925,0.002,0.0
220,-9.514036355540156e-05,-1.0093705654144287,3.865259,-1.0113999843597412,0.002,0.0
221,-9.45269493968226e-05,-1.0087571144104004,3.882592,-1.01010000705719,0.002,0.0
222,-9.4036222435534e-05,-1.0072236061096191,3.899925,-1.0087999105453491,0.002,0.0
223,-9.342280827695504e-05,-1.0059967041015625,3.917258,-1.0074999332427979,0.002,0.0
224,-9.305476123699918e-05,-1.004156470298767,3.934591,-1.0061999559402466,0.002,0.0
225,-9.20119637157768e-05,-1.0029296875,3.951924,-1.0048999786376953,0.002,0.0
226,-9.115318243857473e-05,-1.0023162364959717,3.969257,-1.003600001335144,0.002,0.0
227,-8.998769772006199e-05,-1.0004760026931763,3.98659,-1.0022999048233032,0.002,0.0
228,-8.91902600415051e-05,-0.9992492198944092,4.003923,-1.000999927520752,0.002,0.0
229,-8.802477532299235e-05,-0.9980223774909973,4.021256,-0.9996999502182007,0.002,0.0
230,-8.722734492039308e-05,-0.9971022605895996,4.038589,-0.9983999729156494,0.002,0.0
231,-8.61231965245679e-05,-0.9955687522888184,4.055922,-0.9970999360084534,0.002,0.0
232,-8.532576612196863e-05,-0.9937284588813782,4.073255,-0.9957999587059021,0.002,0.0
