,current,potential,elapsed_time,applied_potential,current_range,segment
0,-0.0003151101409457624,-1.2982878684997559,0.017333,-1.2999999523162842,0.002,0.0
1,-0.00031572356238029897,-1.2970610857009888,0.034666,-1.298699975013733,0.002,0.0
2,-0.0003027805651072413,-1.2958341836929321,0.051999,-1.2973999977111816,0.002,0.0
3,-0.000297259830404073,-1.2943006753921509,0.069332,-1.2960999011993408,0.002,0.0
4,-0.0002918617974501103,-1.2930738925933838,0.086665,-1.2947999238967896,0.002,0.0
5,-0.0002863410918507725,-1.2921537160873413,0.103998,-1.2934999465942383,0.002,0.0
6,-0.00028143380768597126,-1.29062020778656,0.121331,-1.292199969291687,0.002,0.0
7,-0.0002774466120172292,-1.289393424987793,0.138664,-1.2908999919891357,0.002,0.0
8,-0.00027370479074306786,-1.2875531911849976,0.155997,-1.289599895477295,0.002,0.0
9,-0.00027045371825806797,-1.286326289176941,0.17333,-1.2882999181747437,0.002,0.0
10,-0.0002672639675438404,-1.2850995063781738,0.190663,-1.2869999408721924,0.002,0.0
11,-0.00026481031090952456,-1.2838727235794067,0.207996,-1.2856999635696411,0.002,0.0
12,-0.00026149788754992187,-1.28264582157135,0.225329,-1.2843999862670898,0.002,0.0
13,-0.00025861483300104737,-1.2808055877685547,0.242662,-1.2831000089645386,0.002,0.0
14,-0.00025720399571582675,-1.280192255973816,0.259995,-1.2817999124526978,0.002,0.0
15,-0.000256161205470562,-1.2786586284637451,0.277328,-1.2804999351501465,0.002,0.0
16,-0.0002556091349106282,-1.277431845664978,0.294661,-1.2791999578475952,0.002,0.0
17,-0.00025468901731073856,-1.2758983373641968,0.311994,-1.277899980545044,0.002,0.0
18,-0.00025493436260148883,-1.2743648290634155,0.329327,-1.2766000032424927,0.002,0.0
19,-0.0002549957134760916,-1.2737513780593872,0.34666,-1.2752999067306519,0.002,0.0
20,-0.000254075595876202,-1.2725245952606201,0.363993,-1.2739999294281006,0.002,0.0
21,-0.0002533395017962903,-1.2709909677505493,0.381326,-1.2726999521255493,0.002,0.0
22,-0.000252480705967173,-1.269457459449768,0.398659,-1.271399974822998,0.002,0.0
23,-0.0002514379157219082,-1.268230676651001,0.415992,-1.2700999975204468,0.002,0.0
24,-0.00025039512547664344,-1.2670038938522339,0.433325,-1.268799901008606,0.002,0.0
25,-0.00024978170404210687,-1.2657769918441772,0.450658,-1.2674999237060547,0.002,0.0
26,-0.00024886158644221723,-1.2645502090454102,0.467991,-1.2661999464035034,0.002,0.0
27,-0.00024775744532234967,-1.2633233070373535,0.485324,-1.2648999691009521,0.002,0.0
28,-0.00024671462597325444,-1.2617897987365723,0.502657,-1.2635999917984009,0.002,0.0
29,-0.00024542646133340895,-1.260256290435791,0.51999,-1.26229989528656,0.002,0.0
30,-0.0002443836710881442,-1.259336233139038,0.537323,-1.2609999179840088,0.002,0.0
31,-0.00024364757700823247,-1.2574958801269531,0.554656,-1.2596999406814575,0.002,0.0
32,-0.00024291148292832077,-1.2565758228302002,0.571989,-1.2583999633789062,0.002,0.0
33,-0.00024168465461116284,-1.255042314529419,0.589322,-1.257099986076355,0.002,0.0
34,-0.0002405191771686077,-1.2538154125213623,0.606655,-1.2558000087738037,0.002,0.0
35,-0.0002392923488514498,-1.2528953552246094,0.623988,-1.254499912261963,0.002,0.0
36,-0.0002380041842116043,-1.2516685724258423,0.641321,-1.2531999349594116,0.002,0.0
37,-0.000236654668697156,-1.2501349449157715,0.658654,-1.2518999576568604,0.002,0.0
38,-0.00023548919125460088,-1.2486014366149902,0.675987,-1.250599980354309,0.002,0.0
39,-0.0002341396757401526,-1.2473746538162231,0.69332,-1.2493000030517578,0.002,0.0
40,-0.0002326061512576416,-1.2464544773101807,0.710653,-1.247999906539917,0.002,0.0
41,-0.00023064322886057198,-1.2449209690093994,0.727986,-1.2466999292373657,0.002,0.0
42,-0.0002252451959066093,-1.2436941862106323,0.745319,-1.2453999519348145,0.002,0.0
43,-0.00020622940792236477,-1.2424672842025757,0.762652,-1.2440999746322632,0.002,0.0
44,-0.0002186203346354887,-1.2412405014038086,0.779985,-1.242799997329712,0.002,0.0
45,-0.00021469448984134942,-1.2397069931030273,0.797318,-1.241499900817871,0.002,0.0
46,-0.00021242487127892673,-1.2387868165969849,0.814651,-1.2401999235153198,0.002,0.0
47,-0.0002107073087245226,-1.2360265254974365,0.849317,-1.2375999689102173,0.002,0.0
48,-0.00020929647143930197,-1.2344930171966553,0.86665,-1.236299991607666,0.002,0.0
49,-0.00020788561960216612,-1.2329593896865845,0.883983,-1.2349998950958252,0.002,0.0
50,-0.00020659745496232063,-1.2320393323898315,0.901316,-1.233699917793274,0.002,0.0
51,-0.0002053706266451627,-1.2305058240890503,0.918649,-1.2323999404907227,0.002,0.0
52,-0.0002040824620053172,-1.2295856475830078,0.935982,-1.2310999631881714,0.002,0.0
53,-0.00020303965720813721,-1.2283588647842407,0.953315,-1.2297999858856201,0.002,0.0
54,-0.00020236489945091307,-1.2268253564834595,0.970648,-1.2285000085830688,0.002,0.0
55,-0.00020132209465373307,-1.2255984544754028,0.987981,-1.227199912071228,0.002,0.0
56,-0.00020009528088849038,-1.2240649461746216,1.005314,-1.2258999347686768,0.002,0.0
57,-0.0001995432103285566,-1.223144769668579,1.022647,-1.2245999574661255,0.002,0.0
58,-0.0001994818594539538,-1.221917986869812,1.03998,-1.2232999801635742,0.002,0.0
59,-0.00019991125736851245,-1.2200777530670166,1.057313,-1.222000002861023,0.002,0.0
60,-0.0002002793044084683,-1.2191576957702637,1.074646,-1.2206999063491821,0.002,0.0
61,-0.00020162880537100136,-1.2182375192642212,1.091979,-1.2193999290466309,0.002,0.0
62,-0.00020248758664820343,-1.2160905599594116,1.109312,-1.2180999517440796,0.002,0.0
63,-0.00020248758664820343,-1.2154772281646729,1.126645,-1.2167999744415283,0.002,0.0
64,-0.00020242625032551587,-1.213943600654602,1.143978,-1.215499997138977,0.002,0.0
65,-0.00020273294649086893,-1.212716817855835,1.161311,-1.2141999006271362,0.002,0.0
66,-0.00020273294649086893,-1.2114900350570679,1.178644,-1.212899923324585,0.002,0.0
67,-0.00020273294649086893,-1.2096498012542725,1.195977,-1.2115999460220337,0.002,0.0
68,-0.00020248758664820343,-1.20872962474823,1.21331,-1.2102999687194824,0.002,0.0
69,-0.0002023035631282255,-1.207502841949463,1.230643,-1.2089999914169312,0.002,0.0
70,-0.00020205818873364478,-1.2056626081466675,1.247976,-1.2076998949050903,0.002,0.0
71,-0.0002018128288909793,-1.204742431640625,1.265309,-1.206399917602539,0.002,0.0
72,-0.000201506118173711,-1.2032089233398438,1.282642,-1.2050999402999878,0.002,0.0
73,-0.00020132209465373307,-1.2019821405410767,1.299975,-1.2037999629974365,0.002,0.0
74,-0.00020101539848838001,-1.2004485130310059,1.317308,-1.2024999856948853,0.002,0.0
75,-0.00020046332792844623,-1.199528455734253,1.334641,-1.201200008392334,0.002,0.0
76,-0.00019984990649390966,-1.1983016729354858,1.351974,-1.1998999118804932,0.002,0.0
77,-0.0001994818594539538,-1.196768045425415,1.369307,-1.198599934577942,0.002,0.0
78,-0.00019892978889402002,-1.195541262626648,1.38664,-1.1972999572753906,0.002,0.0
79,-0.0001981936948141083,-1.1949278116226196,1.403973,-1.1959999799728394,0.002,0.0
80,-0.00019733491353690624,-1.19278085231781,1.421306,-1.194700002670288,0.002,0.0
81,-0.0001964761468116194,-1.191554069519043,1.438639,-1.1933999061584473,0.002,0.0
82,-0.00019555601465981454,-1.1903272867202759,1.455972,-1.192099928855896,0.002,0.0
83,-0.0001946358970599249,-1.1894071102142334,1.473305,-1.1907999515533447,0.002,0.0
84,-0.00019359310681466013,-1.1878736019134521,1.490638,-1.1894999742507935,0.002,0.0
85,-0.00019107811385765672,-1.1860333681106567,1.507971,-1.1881999969482422,0.002,0.0
86,-0.00017623351595830172,-1.1854199171066284,1.525304,-1.1868999004364014,0.002,0.0
87,-0.00017972997738979757,-1.1838864088058472,1.542637,-1.18559992313385,0.002,0.0
88,-0.00018114082922693342,-1.182352900505066,1.55997,-1.1842999458312988,0.002,0.0
89,-0.0001781351020326838,-1.1811261177062988,1.577303,-1.1829999685287476,0.002,0.0
90,-0.0001778897421900183,-1.1798992156982422,1.594636,-1.1816999912261963,0.002,0.0
91,-0.00017690827371552587,-1.1789791584014893,1.611969,-1.1803998947143555,0.002,0.0
92,-0.00017543608555570245,-1.1774455308914185,1.629302,-1.1790999174118042,0.002,0.0
93,-0.0001740865845931694,-1.1759120225906372,1.646635,-1.177799940109253,0.002,0.0
94,-0.00017230768571607769,-1.173458456993103,1.681301,-1.1751999855041504,0.002,0.0
95,-0.00017157159163616598,-1.1722315549850464,1.698634,-1.1739000082015991,0.002,0.0
96,-0.0001707128103589639,-1.1713114976882935,1.715967,-1.1725999116897583,0.002,0.0
97,-0.0001702220761217177,-1.1700845956802368,1.7333,-1.171299934387207,0.002,0.0
98,-0.0001692406221991405,-1.1682443618774414,1.750633,-1.1699999570846558,0.002,0.0
99,-0.00016807513020467013,-1.1670175790786743,1.767966,-1.1686999797821045,0.002,0.0
100,-0.00016782977036200464,-1.1657907962799072,1.785299,-1.1674000024795532,0.002,0.0
101,-0.0001678911066846922,-1.1645638942718506,1.802632,-1.1660999059677124,0.002,0.0
102,-0.00016838184092193842,-1.1630303859710693,1.819965,-1.1647999286651611,0.002,0.0
103,-0.0001686885516392067,-1.1618036031723022,1.837298,-1.1634999513626099,0.002,0.0
104,-0.00016930195852182806,-1.1608834266662598,1.854631,-1.1621999740600586,0.002,0.0
105,-0.00017040609964169562,-1.1593499183654785,1.871964,-1.1608999967575073,0.002,0.0
106,-0.00017089683387894183,-1.157509684562683,1.889297,-1.1595999002456665,0.002,0.0
107,-0.00017138756811618805,-1.1565895080566406,1.90663,-1.1582999229431152,0.002,0.0
108,-0.00017193963867612183,-1.1553627252578735,1.923963,-1.156999945640564,0.002,0.0
109,-0.00017212366219609976,-1.1541359424591064,1.941296,-1.1556999683380127,0.002,0.0
110,-0.0001722463348414749,-1.152295708656311,1.958629,-1.1543999910354614,0.002,0.0
111,-0.00017267573275603354,-1.1513755321502686,1.975962,-1.1530998945236206,0.002,0.0
112,-0.0001727370690787211,-1.1498420238494873,1.993295,-1.1517999172210693,0.002,0.0
113,-0.00017285975627601147,-1.148308515548706,2.010628,-1.150499939918518,0.002,0.0
114,-0.00017285975627601147,-1.148001790046692,2.027961,-1.1491999626159668,0.002,0.0
115,-0.0001727370690787211,-1.1461615562438965,2.045294,-1.1478999853134155,0.002,0.0
116,-0.00017267573275603354,-1.145241379737854,2.062627,-1.1466000080108643,0.002,0.0
117,-0.00017261438188143075,-1.1437078714370728,2.07996,-1.1452999114990234,0.002,0.0
118,-0.00017243035836145282,-1.1418676376342773,2.097293,-1.1439999341964722,0.002,0.0
119,-0.00017230768571607769,-1.1409475803375244,2.114626,-1.142699956893921,0.002,0.0
120,-0.00017206231132149696,-1.140027403831482,2.131959,-1.1413999795913696,0.002,0.0
121,-0.0001717556151561439,-1.1381871700286865,2.149292,-1.1401000022888184,0.002,0.0
122,-0.00017138756811618805,-1.1375737190246582,2.166625,-1.1387999057769775,0.002,0.0
123,-0.0001709581702016294,-1.1357334852218628,2.183958,-1.1374999284744263,0.002,0.0
124,-0.00017052878683898598,-1.1345067024230957,2.201291,-1.136199951171875,0.002,0.0
125,-0.00016979269275907427,-1.1332799196243286,2.218624,-1.1348999738693237,0.002,0.0
126,-0.00016911793500185013,-1.1323597431182861,2.235957,-1.1335999965667725,0.002,0.0
127,-0.00016813648107927293,-1.1308262348175049,2.25329,-1.1322999000549316,0.002,0.0
128,-0.00016721634892746806,-1.1295994520187378,2.270623,-1.1309999227523804,0.002,0.0
129,-0.00016298380796797574,-1.1283725500106812,2.287956,-1.129699945449829,0.002,0.0
130,-0.00014869129518046975,-1.1268390417099,2.305289,-1.1283999681472778,0.002,0.0
131,-0.00015991674445103854,-1.1249988079071045,2.322622,-1.1270999908447266,0.002,0.0
132,-0.00015550017997156829,-1.1243853569030762,2.339955,-1.1257998943328857,0.002,0.0
133,-0.00015378261741716415,-1.1225451231002808,2.357288,-1.1244999170303345,0.002,0.0
134,-0.0001534145703772083,-1.1213183403015137,2.374621,-1.1231999397277832,0.002,0.0
135,-0.00015224909293465316,-1.1200915575027466,2.391954,-1.121899962425232,0.002,0.0
136,-0.0001513289607828483,-1.1194781064987183,2.409287,-1.1205999851226807,0.002,0.0
137,-0.0001503475068602711,-1.1173311471939087,2.42662,-1.1193000078201294,0.002,0.0
138,-0.0001496114127803594,-1.1164109706878662,2.443953,-1.1179999113082886,0.002,0.0
139,-0.00014881396782584488,-1.1154909133911133,2.461286,-1.1166999340057373,0.002,0.0
140,-0.00014795520110055804,-1.1133439540863037,2.478619,-1.115399956703186,0.002,0.0
141,-0.00014746446686331183,-1.1124238967895508,2.495952,-1.1140999794006348,0.002,0.0
142,-0.0001469737326260656,-1.11089026927948,2.513285,-1.1128000020980835,0.002,0.0
143,-0.00014586959150619805,-1.109970211982727,2.530618,-1.1114999055862427,0.002,0.0
144,-0.0001451948337489739,-1.1087433099746704,2.547951,-1.1101999282836914,0.002,0.0
145,-0.00014507216110359877,-1.1072098016738892,2.565284,-1.1088999509811401,0.002,0.0
146,-0.0001452561846235767,-1.105983018875122,2.582617,-1.1075999736785889,0.002,0.0
147,-0.00014580825518351048,-1.1044495105743408,2.59995,-1.1062999963760376,0.002,0.0
148,-0.00014617630222346634,-1.1035293340682983,2.617283,-1.1049998998641968,0.002,0.0
149,-0.00014740313054062426,-1.101995825767517,2.634616,-1.1036999225616455,0.002,0.0
150,-0.00014813922462053597,-1.1010756492614746,2.651949,-1.1023999452590942,0.002,0.0
151,-0.00014875263150315732,-1.0995421409606934,2.669282,-1.101099967956543,0.002,0.0
152,-0.0001493660529376939,-1.098008632659912,2.686615,-1.0997999906539917,0.002,0.0
153,-0.0001500407961430028,-1.0970885753631592,2.703948,-1.0984998941421509,0.002,0.0
154,-0.00015065421757753938,-1.0958616733551025,2.721281,-1.0971999168395996,0.002,0.0
155,-0.00015120628813747317,-1.0940214395523071,2.738614,-1.0958999395370483,0.002,0.0
156,-0.00015151298430282623,-1.09279465675354,2.755947,-1.094599962234497,0.002,0.0
157,-0.00015175835869740695,-1.0912611484527588,2.77328,-1.0932999849319458,0.002,0.0
158,-0.00015200371854007244,-1.0903409719467163,2.790613,-1.0920000076293945,0.002,0.0
159,-0.00015224909293465316,-1.088807463645935,2.807946,-1.0906999111175537,0.002,0.0
160,-0.0001524331164546311,-1.087580680847168,2.825279,-1.0893999338150024,0.002,0.0
161,-0.00015255578910000622,-1.0863537788391113,2.842612,-1.0880999565124512,0.002,0.0
162,-0.00015249445277731866,-1.0854337215423584,2.859945,-1.0867999792099,0.002,0.0
163,-0.0001523717655800283,-1.083593487739563,2.877278,-1.0855000019073486,0.002,0.0
164,-0.00015231042925734073,-1.0823665857315063,2.894611,-1.0841999053955078,0.002,0.0
165,-0.00015224909293465316,-1.0814465284347534,2.911944,-1.0828999280929565,0.002,0.0
166,-0.00015206506941467524,-1.0802196264266968,2.929277,-1.0815999507904053,0.002,0.0
167,-0.00015181969502009451,-1.0786861181259155,2.94661,-1.080299973487854,0.002,0.0
168,-0.0001513903116574511,-1.0771526098251343,2.963943,-1.0789999961853027,0.002,0.0
169,-0.00015096091374289244,-1.0759258270263672,2.981276,-1.077699899673462,0.002,0.0
170,-0.00015040884318295866,-1.0750056505203247,2.998609,-1.0763999223709106,0.002,0.0
171,-0.00014979543630033731,-1.0731654167175293,3.015942,-1.0750999450683594,0.002,0.0
172,-0.00014875263150315732,-1.0722453594207764,3.033275,-1.073799967765808,0.002,0.0
173,-0.00014126900350674987,-1.0707117319107056,3.050608,-1.0724999904632568,0.002,0.0
174,-0.0001345828059129417,-1.0691782236099243,3.067941,-1.071199893951416,0.002,0.0
175,-0.00014200509758666158,-1.0682581663131714,3.085274,-1.0698999166488647,0.002,0.0
176,-0.00013814058911520988,-1.0670312643051147,3.102607,-1.0685999393463135,0.002,0.0
177,-0.00013752718223258853,-1.0654977560043335,3.11994,-1.0672999620437622,0.002,0.0
178,-0.00013679108815267682,-1.0639642477035522,3.137273,-1.065999984741211,0.002,0.0
179,-0.00013568694703280926,-1.0630440711975098,3.154606,-1.0647000074386597,0.002,0.0
180,-0.00013464414223562926,-1.0615105628967285,3.171939,-1.0633999109268188,0.002,0.0
181,-0.00013384671183302999,-1.0605905055999756,3.189272,-1.0620999336242676,0.002,0.0
182,-0.00013311060320120305,-1.0587502717971802,3.206605,-1.0607999563217163,0.002,0.0
183,-0.00013243585999589413,-1.0581368207931519,3.223938,-1.059499979019165,0.002,0.0
184,-0.00013188378943596035,-1.0566033124923706,3.241271,-1.0582000017166138,0.002,0.0
185,-0.00013133171887602657,-1.055376410484314,3.258604,-1.056899905204773,0.002,0.0
186,-0.00013096367183607072,-1.0541496276855469,3.275937,-1.0555999279022217,0.002,0.0
187,-0.00012998220336157829,-1.0526161193847656,3.29327,-1.0542999505996704,0.002,0.0
188,-0.00012955281999893486,-1.0513893365859985,3.310603,-1.0529999732971191,0.002,0.0
189,-0.0001294301328016445,-1.0498557090759277,3.327936,-1.0516999959945679,0.002,0.0
190,-0.00012961415632162243,-1.049242377281189,3.345269,-1.050399899482727,0.002,0.0
191,-0.00012979817984160036,-1.0474021434783936,3.362602,-1.0490999221801758,0.002,0.0
192,-0.00013004353968426585,-1.0455619096755981,3.379935,-1.0477999448776245,0.002,0.0
193,-0.00013127036800142378,-1.0446417331695557,3.397268,-1.0464999675750732,0.002,0.0
194,-0.00013188378943596035,-1.0428014993667603,3.414601,-1.045199990272522,0.002,0.0
195,-0.0001324971963185817,-1.042188048362732,3.431934,-1.0438998937606812,0.002,0.0
196,-0.00013304926687851548,-1.0406545400619507,3.449267,-1.0425999164581299,0.002,0.0
197,-0.00013390804815571755,-1.0394277572631836,3.4666,-1.0412999391555786,0.002,0.0
198,-0.00013421475887298584,-1.0385075807571411,3.483933,-1.0399999618530273,0.002,0.0
199,-0.0001348281657556072,-1.037280797958374,3.501266,-1.038699984550476,0.002,0.0
200,-0.0001353188999928534,-1.036054015159607,3.518599,-1.0374000072479248,0.002,0.0
201,-0.00013568694703280926,-1.0345203876495361,3.535932,-1.036099910736084,0.002,0.0
202,-0.00013593230687547475,-1.033293604850769,3.553265,-1.0347999334335327,0.002,0.0
203,-0.00013623901759274304,-1.0317600965499878,3.570598,-1.0334999561309814,0.002,0.0
204,-0.00013648437743540853,-1.0302265882492065,3.587931,-1.0321999788284302,0.002,0.0
205,-0.0001366070646326989,-1.02899968624115,3.605264,-1.030900001525879,0.002,0.0
206,-0.00013679108815267682,-1.0277729034423828,3.622597,-1.029599905014038,0.002,0.0
207,-0.00013691377534996718,-1.0268527269363403,3.63993,-1.0282999277114868,0.002,0.0
208,-0.00013697511167265475,-1.025319218635559,3.657263,-1.0269999504089355,0.002,0.0
209,-0.0001368524244753644,-1.0237857103347778,3.674596,-1.0256999731063843,0.002,0.0
210,-0.00013666840095538646,-1.0228655338287354,3.691929,-1.024399995803833,0.002,0.0
211,-0.0001366070646326989,-1.021332025527954,3.709262,-1.0230998992919922,0.002,0.0
212,-0.00013623901759274304,-1.0204119682312012,3.726595,-1.021799921989441,0.002,0.0
213,-0.0001358096196781844,-1.0191850662231445,3.743928,-1.0204999446868896,0.002,0.0
214,-0.00013550292351283133,-1.0176515579223633,3.761261,-1.0191999673843384,0.002,0.0
215,-0.00013501218927558511,-1.016118049621582,3.778594,-1.017899990081787,0.002,0.0
216,-0.00013433743151836097,-1.014891266822815,3.795927,-1.0165998935699463,0.002,0.0
217,-0.00013360133743844926,-1.0133576393127441,3.81326,-1.015299916267395,0.002,0.0
218,-0.000129184772958979,-1.0127443075180054,3.830593,-1.0139999389648438,0.002,0.0
219,-0.00011857273057103157,-1.0105973482131958,3.847926,-1.0126999616622925,0.002,0.0
220,-0.00012808063183911145,-1.0096771717071533,3.865259,-1.0113999843597412,0.002,0.0
221,-0.00012409345072228462,-1.0084503889083862,3.882592,-1.01010000705719,0.002,0.0
222,-0.00012292795872781426,-1.006916880607605,3.899925,-1.0087999105453491,0.002,0.0
223,-0.00012237588816788048,-1.0056899785995483,3.917258,-1.0074999332427979,0.002,0.0
224,-0.00012127174704801291,-1.0044631958007812,3.934591,-1.0061999559402466,0.002,0.0
225,-0.00012041296577081084,-1.0032364130020142,3.951924,-1.0048999786376953,0.002,0.0
226,-0.00011961552809225395,-1.0020095109939575,3.969257,-1.003600001335144,0.002,0.0
227,-0.00011894077761098742,-1.0007827281951904,3.98659,-1.0022999048233032,0.002,0.0
228,-0.00011814333993243054,-0.9986357688903809,4.003923,-1.000999927520752,0.002,0.0
229,-0.00011765261297114193,-0.9977156519889832,4.021256,-0.9996999502182007,0.002,0.0
230,-0.00011697785521391779,-0.9967955350875854,4.038589,-0.9983999729156494,0.002,0.0
231,-0.00011648712825262919,-0.9952620267868042,4.055922,-0.9970999360084534,0.002,0.0
