,current,potential,elapsed_time,applied_potential,current_range,segment
0,-0.00021365169959608465,-1.2982878684997559,0.017333,-1.2999999523162842,0.002,0.0
1,-0.0002043278218479827,-1.2967543601989746,0.034666,-1.298699975013733,0.002,0.0
2,-0.0001987457653740421,-1.2958341836929321,0.051999,-1.2973999977111816,0.002,0.0
3,-0.00019451322441454977,-1.2943006753921509,0.069332,-1.2960999011993408,0.002,0.0
4,-0.0001913234737003222,-1.293380618095398,0.086665,-1.2947999238967896,0.002,0.0
5,-0.00018886981706600636,-1.2915403842926025,0.103998,-1.2934999465942383,0.002,0.0
6,-0.00018653884762898088,-1.2900067567825317,0.121331,-1.292199969291687,0.002,0.0
7,-0.00018463727610651404,-1.289393424987793,0.138664,-1.2908999919891357,0.002,0.0
8,-0.0001829810644267127,-1.2875531911849976,0.155997,-1.289599895477295,0.002,0.0
9,-0.00018101814202964306,-1.286326289176941,0.17333,-1.2882999181747437,0.002,0.0
10,-0.00017966862651519477,-1.2850995063781738,0.190663,-1.2869999408721924,0.002,0.0
11,-0.0001781351020326838,-1.2838727235794067,0.207996,-1.2856999635696411,0.002,0.0
12,-0.0001768469373928383,-1.282339096069336,0.225329,-1.2843999862670898,0.002,0.0
13,-0.0001755587727529928,-1.281419038772583,0.242662,-1.2831000089645386,0.002,0.0
14,-0.00017445463163312525,-1.280192255973816,0.259995,-1.2817999124526978,0.002,0.0
15,-0.00017322780331596732,-1.2786586284637451,0.277328,-1.2804999351501465,0.002,0.0
16,-0.0001722463348414749,-1.276511788368225,0.294661,-1.2791999578475952,0.002,0.0
17,-0.00017089683387894183,-1.276205062866211,0.311994,-1.277899980545044,0.002,0.0
18,-0.00016985402908176184,-1.2743648290634155,0.329327,-1.2766000032424927,0.002,0.0
19,-0.00016887257515918463,-1.273444652557373,0.34666,-1.2752999067306519,0.002,0.0
20,-0.00016801379388198256,-1.272217869758606,0.363993,-1.2739999294281006,0.002,0.0
21,-0.0001671550126047805,-1.2706843614578247,0.381326,-1.2726999521255493,0.002,0.0
22,-0.00016598953516222537,-1.269457459449768,0.398659,-1.271399974822998,0.002,0.0
23,-0.00016519209020771086,-1.2688441276550293,0.415992,-1.2700999975204468,0.002,0.0
24,-0.0001643946598051116,-1.2670038938522339,0.433325,-1.268799901008606,0.002,0.0
25,-0.00016347454220522195,-1.265470266342163,0.450658,-1.2674999237060547,0.002,0.0
26,-0.00016273844812531024,-1.264243483543396,0.467991,-1.2661999464035034,0.002,0.0
27,-0.00016187966684810817,-1.2627099752426147,0.485324,-1.2648999691009521,0.002,0.0
28,-0.00016095954924821854,-1.2617897987365723,0.502657,-1.2635999917984009,0.002,0.0
29,-0.00016016210429370403,-1.2608697414398193,0.51999,-1.26229989528656,0.002,0.0
30,-0.00015942601021379232,-1.2587227821350098,0.537323,-1.2609999179840088,0.002,0.0
31,-0.00015838321996852756,-1.2578026056289673,0.554656,-1.2596999406814575,0.002,0.0
32,-0.00015776979853399098,-1.2568825483322144,0.571989,-1.2583999633789062,0.002,0.0
33,-0.0001569723681313917,-1.255042314529419,0.589322,-1.257099986076355,0.002,0.0
34,-0.00015611358685418963,-1.2538154125213623,0.606655,-1.2558000087738037,0.002,0.0
35,-0.00015531615645159036,-1.2525886297225952,0.623988,-1.254499912261963,0.002,0.0
36,-0.00015464139869436622,-1.2513618469238281,0.641321,-1.2531999349594116,0.002,0.0
37,-0.00015359859389718622,-1.2501349449157715,0.658654,-1.2518999576568604,0.002,0.0
38,-0.0001528624998172745,-1.2489081621170044,0.675987,-1.250599980354309,0.002,0.0
39,-0.00015224909293465316,-1.247067928314209,0.69332,-1.2493000030517578,0.002,0.0
40,-0.00015145164798013866,-1.2461477518081665,0.710653,-1.247999906539917,0.002,0.0
41,-0.00015077689022291452,-1.2455344200134277,0.727986,-1.2466999292373657,0.002,0.0
42,-0.0001501021470176056,-1.2433874607086182,0.745319,-1.2453999519348145,0.002,0.0
43,-0.00014942738926038146,-1.2424672842025757,0.762652,-1.2440999746322632,0.002,0.0
44,-0.00014875263150315732,-1.2406270503997803,0.779985,-1.242799997329712,0.002,0.0
45,-0.00014820056094322354,-1.2400137186050415,0.797318,-1.241499900817871,0.002,0.0
46,-0.0001475258031859994,-1.2387868165969849,0.814651,-1.2401999235153198,0.002,0.0
47,-0.00014617630222346634,-1.2360265254974365,0.849317,-1.2375999689102173,0.002,0.0
48,-0.0001455015444662422,-1.2341862916946411,0.86665,-1.236299991607666,0.002,0.0
49,-0.00014488813758362085,-1.2329593896865845,0.883983,-1.2349998950958252,0.002,0.0
50,-0.00014427471614908427,-1.2320393323898315,0.901316,-1.233699917793274,0.002,0.0
51,-0.00014353862206917256,-1.230812430381775,0.918649,-1.2323999404907227,0.002,0.0
52,-0.00014274119166657329,-1.2292789220809937,0.935982,-1.2310999631881714,0.002,0.0
53,-0.000142434480949305,-1.2274386882781982,0.953315,-1.2297999858856201,0.002,0.0
54,-0.00014188241038937122,-1.2268253564834595,0.970648,-1.2285000085830688,0.002,0.0
55,-0.00014108497998677194,-1.224985122680664,0.987981,-1.227199912071228,0.002,0.0
56,-0.00014047155855223536,-1.2237582206726074,1.005314,-1.2258999347686768,0.002,0.0
57,-0.00013991948799230158,-1.2234514951705933,1.022647,-1.2245999574661255,0.002,0.0
58,-0.0001393674174323678,-1.2213045358657837,1.03998,-1.2232999801635742,0.002,0.0
59,-0.00013850863615516573,-1.2203844785690308,1.057313,-1.222000002861023,0.002,0.0
60,-0.00013795656559523195,-1.2188509702682495,1.074646,-1.2206999063491821,0.002,0.0
61,-0.00013740449503529817,-1.2173174619674683,1.091979,-1.2193999290466309,0.002,0.0
62,-0.00013679108815267682,-1.2163972854614258,1.109312,-1.2180999517440796,0.002,0.0
63,-0.0001363003539154306,-1.2148637771606445,1.126645,-1.2167999744415283,0.002,0.0
64,-0.0001358096196781844,-1.213636875152588,1.143978,-1.215499997138977,0.002,0.0
65,-0.00013507352559827268,-1.2124100923538208,1.161311,-1.2141999006271362,0.002,0.0
66,-0.00013439878239296377,-1.2114900350570679,1.178644,-1.212899923324585,0.002,0.0
67,-0.0001337853609584272,-1.2093430757522583,1.195977,-1.2115999460220337,0.002,0.0
68,-0.0001332332903984934,-1.2084228992462158,1.21331,-1.2102999687194824,0.002,0.0
69,-0.0001322518364759162,-1.2071961164474487,1.230643,-1.2089999914169312,0.002,0.0
70,-0.0001321904856013134,-1.205969214439392,1.247976,-1.2076998949050903,0.002,0.0
71,-0.00013157707871869206,-1.204742431640625,1.265309,-1.206399917602539,0.002,0.0
72,-0.00013102500815875828,-1.2032089233398438,1.282642,-1.2050999402999878,0.002,0.0
73,-0.00013028891407884657,-1.2022887468338013,1.299975,-1.2037999629974365,0.002,0.0
74,-0.00012985951616428792,-1.20075523853302,1.317308,-1.2024999856948853,0.002,0.0
75,-0.00012912342208437622,-1.199528455734253,1.334641,-1.201200008392334,0.002,0.0
76,-0.0001284486788790673,-1.1983016729354858,1.351974,-1.1998999118804932,0.002,0.0
77,-0.0001277125847991556,-1.1973814964294434,1.369307,-1.198599934577942,0.002,0.0
78,-0.00012703782704193145,-1.195541262626648,1.38664,-1.1972999572753906,0.002,0.0
79,-0.0001266084291273728,-1.1940077543258667,1.403973,-1.1959999799728394,0.002,0.0
80,-0.0001259336859220639,-1.1930875778198242,1.421306,-1.194700002670288,0.002,0.0
81,-0.0001253202644875273,-1.191554069519043,1.438639,-1.1933999061584473,0.002,0.0
82,-0.00012470685760490596,-1.1900205612182617,1.455972,-1.192099928855896,0.002,0.0
83,-0.00012403209984768182,-1.1891003847122192,1.473305,-1.1907999515533447,0.002,0.0
84,-0.00012323466944508255,-1.1878736019134521,1.490638,-1.1894999742507935,0.002,0.0
85,-0.0001228666224051267,-1.1860333681106567,1.507971,-1.1881999969482422,0.002,0.0
86,-0.00012219186464790255,-1.1848065853118896,1.525304,-1.1868999004364014,0.002,0.0
87,-0.00012176247400930151,-1.1838864088058472,1.542637,-1.18559992313385,0.002,0.0
88,-0.0001210263799293898,-1.18265962600708,1.55997,-1.1842999458312988,0.002,0.0
89,-0.00012041296577081084,-1.1817394495010376,1.577303,-1.1829999685287476,0.002,0.0
90,-0.00011986089521087706,-1.1798992156982422,1.594636,-1.1816999912261963,0.002,0.0
91,-0.00011937016824958846,-1.178365707397461,1.611969,-1.1803998947143555,0.002,0.0
92,-0.0001190021212096326,-1.1774455308914185,1.629302,-1.1790999174118042,0.002,0.0
93,-0.00011808199633378536,-1.1762187480926514,1.646635,-1.177799940109253,0.002,0.0
94,-0.0001172232223325409,-1.1731517314910889,1.681301,-1.1751999855041504,0.002,0.0
95,-0.00011685517529258505,-1.1722315549850464,1.698634,-1.1739000082015991,0.002,0.0
96,-0.00011611908121267334,-1.1710047721862793,1.715967,-1.1725999116897583,0.002,0.0
97,-0.0001156896905740723,-1.1697778701782227,1.7333,-1.171299934387207,0.002,0.0
98,-0.00011513762001413852,-1.1682443618774414,1.750633,-1.1699999570846558,0.002,0.0
99,-0.00011458554945420474,-1.1667108535766602,1.767966,-1.1686999797821045,0.002,0.0
100,-0.00011409481521695852,-1.1657907962799072,1.785299,-1.1674000024795532,0.002,0.0
101,-0.00011323604121571407,-1.1639505624771118,1.802632,-1.1660999059677124,0.002,0.0
102,-0.00011292933049844578,-1.1633371114730835,1.819965,-1.1647999286651611,0.002,0.0
103,-0.00011249994713580236,-1.1621102094650269,1.837298,-1.1634999513626099,0.002,0.0
104,-0.00011164116585860029,-1.1608834266662598,1.854631,-1.1621999740600586,0.002,0.0
105,-0.00011127311881864443,-1.1596566438674927,1.871964,-1.1608999967575073,0.002,0.0
106,-0.00011078239185735583,-1.1581231355667114,1.889297,-1.1595999002456665,0.002,0.0
107,-0.00011010763410013169,-1.1568962335586548,1.90663,-1.1582999229431152,0.002,0.0
108,-0.00010955556354019791,-1.1550559997558594,1.923963,-1.156999945640564,0.002,0.0
109,-0.00010906483657890931,-1.1538292169570923,1.941296,-1.1556999683380127,0.002,0.0
110,-0.00010851275874301791,-1.1529090404510498,1.958629,-1.1543999910354614,0.002,0.0
111,-0.00010796068818308413,-1.1510688066482544,1.975962,-1.1530998945236206,0.002,0.0
112,-0.00010753130482044071,-1.1495352983474731,1.993295,-1.1517999172210693,0.002,0.0
113,-0.00010685654706321657,-1.1486152410507202,2.010628,-1.150499939918518,0.002,0.0
114,-0.00010630447650328279,-1.1476950645446777,2.027961,-1.1491999626159668,0.002,0.0
115,-0.00010593642946332693,-1.1464682817459106,2.045294,-1.1478999853134155,0.002,0.0
116,-0.00010526167170610279,-1.1449346542358398,2.062627,-1.1466000080108643,0.002,0.0
117,-0.00010470960114616901,-1.1434011459350586,2.07996,-1.1452999114990234,0.002,0.0
118,-0.0001042188741848804,-1.1424810886383057,2.097293,-1.1439999341964722,0.002,0.0
119,-0.00010366680362494662,-1.140334129333496,2.114626,-1.142699956893921,0.002,0.0
120,-0.00010311473306501284,-1.1394139528274536,2.131959,-1.1413999795913696,0.002,0.0
121,-0.00010250131890643388,-1.1384938955307007,2.149292,-1.1401000022888184,0.002,0.0
122,-0.00010188790474785492,-1.1369603872299194,2.166625,-1.1387999057769775,0.002,0.0
123,-0.00010139717778656632,-1.136040210723877,2.183958,-1.1374999284744263,0.002,0.0
124,-0.00010084509995067492,-1.1338932514190674,2.201291,-1.136199951171875,0.002,0.0
125,-0.0001004157165880315,-1.1329731941223145,2.218624,-1.1348999738693237,0.002,0.0
126,-9.980230242945254e-05,-1.1314396858215332,2.235957,-1.1335999965667725,0.002,0.0
127,-9.925023186951876e-05,-1.1305195093154907,2.25329,-1.1322999000549316,0.002,0.0
128,-9.869816130958498e-05,-1.1295994520187378,2.270623,-1.1309999227523804,0.002,0.0
129,-9.81460907496512e-05,-1.1277590990066528,2.287956,-1.129699945449829,0.002,0.0
130,-9.771670011105016e-05,-1.127145767211914,2.305289,-1.1283999681472778,0.002,0.0
131,-9.71032859524712e-05,-1.1253055334091187,2.322622,-1.1270999908447266,0.002,0.0
132,-9.648987179389223e-05,-1.1237720251083374,2.339955,-1.1257998943328857,0.002,0.0
133,-9.612182475393638e-05,-1.123158574104309,2.357288,-1.1244999170303345,0.002,0.0
134,-9.550841059535742e-05,-1.1210116147994995,2.374621,-1.1231999397277832,0.002,0.0
135,-9.495634003542364e-05,-1.1200915575027466,2.391954,-1.121899962425232,0.002,0.0
136,-9.446561307413504e-05,-1.1185579299926758,2.409287,-1.1205999851226807,0.002,0.0
137,-9.391354251420125e-05,-1.1176378726959229,2.42662,-1.1193000078201294,0.002,0.0
138,-9.342280827695504e-05,-1.1161043643951416,2.443953,-1.1179999113082886,0.002,0.0
139,-9.2993417638354e-05,-1.1151841878890991,2.461286,-1.1166999340057373,0.002,0.0
140,-9.262537059839815e-05,-1.113957405090332,2.478619,-1.115399956703186,0.002,0.0
141,-9.20119637157768e-05,-1.1127305030822754,2.495952,-1.1140999794006348,0.002,0.0
142,-9.158257307717577e-05,-1.11089026927948,2.513285,-1.1128000020980835,0.002,0.0
143,-9.09691589185968e-05,-1.109970211982727,2.530618,-1.1114999055862427,0.002,0.0
144,-9.066245547728613e-05,-1.1084367036819458,2.547951,-1.1101999282836914,0.002,0.0
145,-9.011038491735235e-05,-1.1072098016738892,2.565284,-1.1088999509811401,0.002,0.0
146,-8.968099427875131e-05,-1.105983018875122,2.582617,-1.1075999736785889,0.002,0.0
147,-8.906758012017235e-05,-1.104756236076355,2.59995,-1.1062999963760376,0.002,0.0
148,-8.86995330802165e-05,-1.1029160022735596,2.617283,-1.1049998998641968,0.002,0.0
149,-8.827014244161546e-05,-1.101689100265503,2.634616,-1.1036999225616455,0.002,0.0
150,-8.771807188168168e-05,-1.10076904296875,2.651949,-1.1023999452590942,0.002,0.0
151,-8.698197780176997e-05,-1.0992354154586792,2.669282,-1.101099967956543,0.002,0.0
152,-8.667526708450168e-05,-1.0983153581619263,2.686615,-1.0997999906539917,0.002,0.0
153,-8.61231965245679e-05,-1.096781849861145,2.703948,-1.0984998941421509,0.002,0.0
154,-8.532576612196863e-05,-1.0952483415603638,2.721281,-1.0971999168395996,0.002,0.0
155,-8.520307892467827e-05,-1.0940214395523071,2.738614,-1.0958999395370483,0.002,0.0
156,-8.471235196338966e-05,-1.0924879312515259,2.755947,-1.094599962234497,0.002,0.0
157,-8.40989378048107e-05,-1.0912611484527588,2.77328,-1.0932999849319458,0.002,0.0
158,-8.360820356756449e-05,-1.0903409719467163,2.790613,-1.0920000076293945,0.002,0.0
159,-8.324015652760863e-05,-1.088807463645935,2.807946,-1.0906999111175537,0.002,0.0
160,-8.268808596767485e-05,-1.0878872871398926,2.825279,-1.0893999338150024,0.002,0.0
161,-8.207467180909589e-05,-1.0860470533370972,2.842612,-1.0880999565124512,0.002,0.0
162,-8.152260124916211e-05,-1.084513545036316,2.859945,-1.0867999792099,0.002,0.0
163,-8.127724140649661e-05,-1.0839000940322876,2.877278,-1.0855000019073486,0.002,0.0
164,-8.066382724791765e-05,-1.0826733112335205,2.894611,-1.0841999053955078,0.002,0.0
165,-8.011175668798387e-05,-1.080833077430725,2.911944,-1.0828999280929565,0.002,0.0
166,-7.968236604938284e-05,-1.0802196264266968,2.929277,-1.0815999507904053,0.002,0.0
167,-7.900761556811631e-05,-1.0786861181259155,2.94661,-1.080299973487854,0.002,0.0
168,-7.863956125220284e-05,-1.0774593353271484,2.963943,-1.0789999961853027,0.002,0.0
169,-7.839420140953735e-05,-1.0762324333190918,2.981276,-1.077699899673462,0.002,0.0
170,-7.790346717229113e-05,-1.0743921995162964,2.998609,-1.0763999223709106,0.002,0.0
171,-7.729005301371217e-05,-1.0731654167175293,3.015942,-1.0750999450683594,0.002,0.0
172,-7.679932605242357e-05,-1.0719386339187622,3.033275,-1.073799967765808,0.002,0.0
173,-7.630859909113497e-05,-1.0710184574127197,3.050608,-1.0724999904632568,0.002,0.0
174,-7.575652125524357e-05,-1.0691782236099243,3.067941,-1.071199893951416,0.002,0.0
175,-7.551116141257808e-05,-1.0679514408111572,3.085274,-1.0698999166488647,0.002,0.0
176,-7.508177077397704e-05,-1.0670312643051147,3.102607,-1.0685999393463135,0.002,0.0
177,-7.446835661539808e-05,-1.0658044815063477,3.11994,-1.0672999620437622,0.002,0.0
178,-7.39162860554643e-05,-1.0645776987075806,3.137273,-1.065999984741211,0.002,0.0
179,-7.336421549553052e-05,-1.0627374649047852,3.154606,-1.0647000074386597,0.002,0.0
180,-7.293482485692948e-05,-1.0621240139007568,3.171939,-1.0633999109268188,0.002,0.0
181,-7.244409789564088e-05,-1.0602837800979614,3.189272,-1.0620999336242676,0.002,0.0
182,-7.176934013841674e-05,-1.0587502717971802,3.206605,-1.0607999563217163,0.002,0.0
183,-7.140129309846088e-05,-1.0578300952911377,3.223938,-1.059499979019165,0.002,0.0
184,-7.097190245985985e-05,-1.0566033124923706,3.241271,-1.0582000017166138,0.002,0.0
185,-7.041983189992607e-05,-1.0550698041915894,3.258604,-1.056899905204773,0.002,0.0
186,-7.023580837994814e-05,-1.0541496276855469,3.275937,-1.0555999279022217,0.002,0.0
187,-6.974508141865954e-05,-1.0526161193847656,3.29327,-1.0542999505996704,0.002,0.0
188,-6.90703236614354e-05,-1.0513893365859985,3.310603,-1.0529999732971191,0.002,0.0
189,-6.870227662147954e-05,-1.050162434577942,3.327936,-1.0516999959945679,0.002,0.0
190,-6.839557318016887e-05,-1.0486289262771606,3.345269,-1.050399899482727,0.002,0.0
191,-6.790483894292265e-05,-1.0474021434783936,3.362602,-1.0490999221801758,0.002,0.0
192,-6.747545558027923e-05,-1.0458685159683228,3.379935,-1.0477999448776245,0.002,0.0
193,-6.698472134303302e-05,-1.0446417331695557,3.397268,-1.0464999675750732,0.002,0.0
194,-6.65553379803896e-05,-1.0431082248687744,3.414601,-1.045199990272522,0.002,0.0
195,-6.630997086176649e-05,-1.042188048362732,3.431934,-1.0438998937606812,0.002,0.0
196,-6.569655670318753e-05,-1.0409612655639648,3.449267,-1.0425999164581299,0.002,0.0
197,-6.532850966323167e-05,-1.0394277572631836,3.4666,-1.0412999391555786,0.002,0.0
198,-6.5021806221921e-05,-1.038200855255127,3.483933,-1.0399999618530273,0.002,0.0
199,-6.453107198467478e-05,-1.0366673469543457,3.501266,-1.038699984550476,0.002,0.0
200,-6.361095438478515e-05,-1.0351338386535645,3.518599,-1.0374000072479248,0.002,0.0
201,-6.361095438478515e-05,-1.0342137813568115,3.535932,-1.036099910736084,0.002,0.0
202,-6.318156374618411e-05,-1.033293604850769,3.553265,-1.0347999334335327,0.002,0.0
203,-6.269083678489551e-05,-1.0317600965499878,3.570598,-1.0334999561309814,0.002,0.0
204,-6.201607902767137e-05,-1.0302265882492065,3.587931,-1.0321999788284302,0.002,0.0
205,-6.183205550769344e-05,-1.02899968624115,3.605264,-1.030900001525879,0.002,0.0
206,-6.109596142778173e-05,-1.0277729034423828,3.622597,-1.029599905014038,0.002,0.0
207,-6.06665744271595e-05,-1.0265461206436157,3.63993,-1.0282999277114868,0.002,0.0
208,-6.029852374922484e-05,-1.025319218635559,3.657263,-1.0269999504089355,0.002,0.0
209,-5.9869136748602614e-05,-1.0237857103347778,3.674596,-1.0256999731063843,0.002,0.0
210,-5.931706618866883e-05,-1.0228655338287354,3.691929,-1.024399995803833,0.002,0.0
211,-5.8764991990756243e-05,-1.021332025527954,3.709262,-1.0230998992919922,0.002,0.0
212,-5.839694495080039e-05,-1.0197985172271729,3.726595,-1.021799921989441,0.002,0.0
213,-5.796755795017816e-05,-1.01887845993042,3.743928,-1.0204999446868896,0.002,0.0
214,-5.759951091022231e-05,-1.0176515579223633,3.761261,-1.0191999673843384,0.002,0.0
215,-5.71087803109549e-05,-1.016118049621582,3.778594,-1.017899990081787,0.002,0.0
216,-5.661804971168749e-05,-1.0145845413208008,3.795927,-1.0165998935699463,0.002,0.0
217,-5.6250002671731636e-05,-1.0133576393127441,3.81326,-1.015299916267395,0.002,0.0
218,-5.569792847381905e-05,-1.0124375820159912,3.830593,-1.0139999389648438,0.002,0.0
219,-5.55752485524863e-05,-1.0112107992172241,3.847926,-1.0126999616622925,0.002,0.0
220,-5.5207201512530446e-05,-1.0096771717071533,3.865259,-1.0113999843597412,0.002,0.0
221,-5.465512731461786e-05,-1.0087571144104004,3.882592,-1.01010000705719,0.002,0.0
222,-5.4103056754684076e-05,-1.0072236061096191,3.899925,-1.0087999105453491,0.002,0.0
223,-5.3796349675394595e-05,-1.0056899785995483,3.917258,-1.0074999332427979,0.002,0.0
224,-5.3305619076127186e-05,-1.0047699213027954,3.934591,-1.0061999559402466,0.002,0.0
225,-5.293757203617133e-05,-1.0029296875,3.951924,-1.0048999786376953,0.002,0.0
226,-5.2446841436903924e-05,-1.0020095109939575,3.969257,-1.003600001335144,0.002,0.0
227,-5.214013799559325e-05,-1.0007827281951904,3.98659,-1.0022999048233032,0.002,0.0
228,-5.164940739632584e-05,-0.9992492198944092,4.003923,-1.000999927520752,0.002,0.0
229,-5.0974653277080506e-05,-0.9980223774909973,4.021256,-0.9996999502182007,0.002,0.0
230,-5.079062975710258e-05,-0.9967955350875854,4.038589,-0.9983999729156494,0.002,0.0
231,-5.023855555918999e-05,-0.9958754181861877,4.055922,-0.9970999360084534,0.002,0.0
232,-4.9870508519234136e-05,-0.9940351843833923,4.073255,-0.9957999587059021,0.002,0.0
