,current,potential,elapsed_time,applied_potential,current_range,segment
0,-0.0004198810493107885,-1.297367811203003,0.024,-1.2999999523162842,0.002,0.0
1,-0.00041460568900220096,-1.2958341836929321,0.048,-1.298200011253357,0.002,0.0
2,-0.00040969837573356926,-1.2943006753921509,0.072,-1.2963999509811401,0.002,0.0
3,-0.0004060792562086135,-1.2924604415893555,0.096,-1.294600009918213,0.002,0.0
4,-0.0004023374349344522,-1.2909269332885742,0.12,-1.292799949645996,0.002,0.0
5,-0.0003990250115748495,-1.2884732484817505,0.144,-1.2910000085830688,0.002,0.0
6,-0.000396141957025975,-1.2869397401809692,0.168,-1.289199948310852,0.002,0.0
7,-0.0003928908845409751,-1.2847927808761597,0.192,-1.2874000072479248,0.002,0.0
8,-0.0003901305317413062,-1.2832592725753784,0.216,-1.285599946975708,0.002,0.0
9,-0.0003867567575071007,-1.2811123132705688,0.24,-1.2838000059127808,0.002,0.0
10,-0.0003841190773528069,-1.2795788049697876,0.264,-1.281999945640564,0.002,0.0
11,-0.00038080665399320424,-1.2777385711669922,0.288,-1.2802000045776367,0.002,0.0
12,-0.0003782916464842856,-1.2758983373641968,0.312,-1.27839994430542,0.002,0.0
13,-0.0003749792231246829,-1.2740581035614014,0.336,-1.2766000032424927,0.002,0.0
14,-0.00037185082328505814,-1.2728312015533447,0.36,-1.2747999429702759,0.002,0.0
15,-0.00036878377432003617,-1.2706843614578247,0.384,-1.2730000019073486,0.002,0.0
16,-0.00036522597656585276,-1.269150733947754,0.408,-1.2711999416351318,0.002,0.0
17,-0.000362097576726228,-1.2666971683502197,0.432,-1.2694000005722046,0.002,0.0
18,-0.00035835575545206666,-1.265163540840149,0.456,-1.2675999402999878,0.002,0.0
19,-0.0003552273556124419,-1.2636300325393677,0.48,-1.2657999992370605,0.002,0.0
20,-0.00035148553433828056,-1.2617897987365723,0.504,-1.2639999389648438,0.002,0.0
21,-0.0003480504092294723,-1.2596428394317627,0.528,-1.2621999979019165,0.002,0.0
22,-0.00034430858795531094,-1.2584160566329956,0.552,-1.2603999376296997,0.002,0.0
23,-0.00034050544491037726,-1.256269097328186,0.576,-1.2585999965667725,0.002,0.0
24,-0.00033688629628159106,-1.255042314529419,0.6,-1.2567999362945557,0.002,0.0
25,-0.00033277642796747386,-1.252281904220581,0.624,-1.2549999952316284,0.002,0.0
26,-0.00032921863021329045,-1.251055121421814,0.648,-1.2531999349594116,0.002,0.0
27,-0.00032498608925379813,-1.2492148876190186,0.672,-1.2513999938964844,0.002,0.0
28,-0.00032118294620886445,-1.247067928314209,0.696,-1.2495999336242676,0.002,0.0
29,-0.0003165823291055858,-1.2455344200134277,0.72,-1.2477999925613403,0.002,0.0
30,-0.0003123497881460935,-1.2433874607086182,0.744,-1.2459999322891235,0.002,0.0
31,-0.00030793322366662323,-1.241853952407837,0.768,-1.2441999912261963,0.002,0.0
32,-0.0003034553083125502,-1.2403203248977661,0.792,-1.2423999309539795,0.002,0.0
33,-0.00029928411822766066,-1.238173484802246,0.816,-1.2405999898910522,0.002,0.0
34,-0.0002944994776044041,-1.2366398572921753,0.84,-1.2387999296188354,0.002,0.0
35,-0.0002905123110394925,-1.2344930171966553,0.864,-1.2369999885559082,0.002,0.0
36,-0.000285543646896258,-1.2335728406906128,0.888,-1.2351999282836914,0.002,0.0
37,-0.00028143380768597126,-1.231119155883789,0.912,-1.2333999872207642,0.002,0.0
38,-0.0002768331905826926,-1.2292789220809937,0.936,-1.2315999269485474,0.002,0.0
39,-0.0002726006496232003,-1.2274386882781982,0.96,-1.2297999858856201,0.002,0.0
40,-0.00026842945953831077,-1.2255984544754028,0.984,-1.2279999256134033,0.002,0.0
41,-0.0002638901933096349,-1.2243716716766357,1.008,-1.226199984550476,0.002,0.0
42,-0.0002601483720354736,-1.2222247123718262,1.032,-1.2243999242782593,0.002,0.0
43,-0.00025591583107598126,-1.2200777530670166,1.056,-1.222599983215332,0.002,0.0
44,-0.00025241938419640064,-1.2185442447662354,1.08,-1.2207999229431152,0.002,0.0
45,-0.00024855489027686417,-1.21670401096344,1.104,-1.218999981880188,0.002,0.0
46,-0.0002450584142934531,-1.2148637771606445,1.128,-1.2171999216079712,0.002,0.0
47,-0.00024143929476849735,-1.2130235433578491,1.152,-1.215399980545044,0.002,0.0
48,-0.0002380041842116043,-1.2111833095550537,1.176,-1.2135999202728271,0.002,0.0
49,-0.00023512114421464503,-1.2096498012542725,1.2,-1.2117999792099,0.002,0.0
50,-0.00023156334646046162,-1.207809567451477,1.224,-1.209999918937683,0.002,0.0
51,-0.0002288029936607927,-1.2056626081466675,1.248,-1.2081999778747559,0.002,0.0
52,-0.00022555190662387758,-1.2041289806365967,1.272,-1.206399917602539,0.002,0.0
53,-0.00022297556279227138,-1.2022887468338013,1.296,-1.2045999765396118,0.002,0.0
54,-0.00021990849927533418,-1.20075523853302,1.32,-1.202799916267395,0.002,0.0
55,-0.0002170254592783749,-1.1989150047302246,1.344,-1.2009999752044678,0.002,0.0
56,-0.00021438779367599636,-1.1973814964294434,1.368,-1.199199914932251,0.002,0.0
57,-0.0002114434028044343,-1.1949278116226196,1.392,-1.1973999738693237,0.002,0.0
58,-0.00020911244791932404,-1.1937010288238525,1.416,-1.195599913597107,0.002,0.0
59,-0.0002061067207250744,-1.191554069519043,1.44,-1.1937999725341797,0.002,0.0
60,-0.00020377575128804892,-1.1897138357162476,1.464,-1.191999912261963,0.002,0.0
61,-0.0002007700240937993,-1.1881803274154663,1.488,-1.1901999711990356,0.002,0.0
62,-0.00019831638201139867,-1.1860333681106567,1.512,-1.1883999109268188,0.002,0.0
63,-0.00019549467833712697,-1.1841931343078613,1.536,-1.1865999698638916,0.002,0.0
64,-0.00019279566186014563,-1.1829663515090942,1.56,-1.1847999095916748,0.002,0.0
65,-0.000190342019777745,-1.1808193922042847,1.584,-1.1829999685287476,0.002,0.0
66,-0.00018758165242616087,-1.178365707397461,1.608,-1.1811999082565308,0.002,0.0
67,-0.00018525068298913538,-1.1771389245986938,1.632,-1.1793999671936035,0.002,0.0
68,-0.0001824289938667789,-1.175605297088623,1.656,-1.1775999069213867,0.002,0.0
69,-0.000180159360752441,-1.1731517314910889,1.68,-1.1757999658584595,0.002,0.0
70,-0.00017752169515006244,-1.1716182231903076,1.704,-1.1739999055862427,0.002,0.0
71,-0.0001753133983584121,-1.1700845956802368,1.728,-1.1721999645233154,0.002,0.0
72,-0.00017279840540140867,-1.1682443618774414,1.752,-1.1703999042510986,0.002,0.0
73,-0.00017040609964169562,-1.1667108535766602,1.776,-1.1685999631881714,0.002,0.0
74,-0.00016832050459925085,-1.1648706197738647,1.8,-1.1667999029159546,0.002,0.0
75,-0.00016568282444495708,-1.1630303859710693,1.824,-1.1649999618530273,0.002,0.0
76,-0.00016396526189055294,-1.161190152168274,1.848,-1.1631999015808105,0.002,0.0
77,-0.00016138893261086196,-1.1590431928634644,1.872,-1.1613999605178833,0.002,0.0
78,-0.00015942601021379232,-1.157509684562683,1.896,-1.1595999002456665,0.002,0.0
79,-0.00015703370445407927,-1.1556694507598877,1.92,-1.1577999591827393,0.002,0.0
80,-0.00015500944573432207,-1.1535224914550781,1.944,-1.1559998989105225,0.002,0.0
81,-0.00015273981261998415,-1.1516822576522827,1.968,-1.1541999578475952,0.002,0.0
82,-0.00015053153038024902,-1.1498420238494873,1.992,-1.1523998975753784,0.002,0.0
83,-0.00014838458446320146,-1.1489218473434448,2.016,-1.1505999565124512,0.002,0.0
84,-0.00014611496590077877,-1.1464682817459106,2.04,-1.1487998962402344,0.002,0.0
85,-0.00014433606702368706,-1.1446280479431152,2.064,-1.1469999551773071,0.002,0.0
86,-0.00014200509758666158,-1.1427878141403198,2.088,-1.1452000141143799,0.002,0.0
87,-0.0001401648623868823,-1.141254186630249,2.112,-1.143399953842163,0.002,0.0
88,-0.00013789522927254438,-1.1394139528274536,2.136,-1.1416000127792358,0.002,0.0
89,-0.0001358096196781844,-1.1378804445266724,2.16,-1.139799952507019,0.002,0.0
90,-0.00013384671183302999,-1.1357334852218628,2.184,-1.1380000114440918,0.002,0.0
91,-0.00013157707871869206,-1.1338932514190674,2.208,-1.136199951171875,0.002,0.0
92,-0.00012979817984160036,-1.132053017616272,2.232,-1.1344000101089478,0.002,0.0
93,-0.00012728318688459694,-1.1302127838134766,2.256,-1.132599949836731,0.002,0.0
94,-0.00012544295168481767,-1.1286792755126953,2.28,-1.1308000087738037,0.002,0.0
95,-0.00012311198224779218,-1.1265323162078857,2.304,-1.128999948501587,0.002,0.0
96,-0.00012127174704801291,-1.1246920824050903,2.328,-1.1272000074386597,0.002,0.0
97,-0.00011918614472961053,-1.122851848602295,2.352,-1.1253999471664429,0.002,0.0
98,-0.00011716187873389572,-1.1210116147994995,2.376,-1.1236000061035156,0.002,0.0
99,-0.00011532164353411645,-1.1197848320007324,2.4,-1.1217999458312988,0.002,0.0
100,-0.0001131133540184237,-1.1176378726959229,2.424,-1.1200000047683716,0.002,0.0
101,-0.00011164116585860029,-1.1154909133911133,2.448,-1.1181999444961548,0.002,0.0
102,-0.00010943288361886516,-1.1142641305923462,2.472,-1.1164000034332275,0.002,0.0
103,-0.00010783800826175138,-1.1127305030822754,2.496,-1.1145999431610107,0.002,0.0
104,-0.00010581374954199418,-1.1105835437774658,2.52,-1.1128000020980835,0.002,0.0
105,-0.0001042188741848804,-1.1090500354766846,2.544,-1.1109999418258667,0.002,0.0
106,-0.0001024399753077887,-1.106903076171875,2.568,-1.1092000007629395,0.002,0.0
107,-0.00010072242002934217,-1.1053695678710938,2.592,-1.1073999404907227,0.002,0.0
108,-9.918888827087358e-05,-1.1032226085662842,2.616,-1.1055999994277954,0.002,0.0
109,-9.716462955111638e-05,-1.101689100265503,2.64,-1.1037999391555786,0.002,0.0
110,-9.599914483260363e-05,-1.0998488664627075,2.664,-1.1019999980926514,0.002,0.0
111,-9.385219891555607e-05,-1.0983153581619263,2.688,-1.1001999378204346,0.002,0.0
112,-9.268671419704333e-05,-1.0958616733551025,2.712,-1.0983999967575073,0.002,0.0
113,-9.09691589185968e-05,-1.0940214395523071,2.736,-1.0965999364852905,0.002,0.0
114,-8.94356271601282e-05,-1.0924879312515259,2.76,-1.0947999954223633,0.002,0.0
115,-8.802477532299235e-05,-1.0903409719467163,2.784,-1.0929999351501465,0.002,0.0
116,-8.624588372185826e-05,-1.0894209146499634,2.808,-1.0911999940872192,0.002,0.0
117,-8.495771180605516e-05,-1.0872739553451538,2.832,-1.0893999338150024,0.002,0.0
118,-8.330150012625381e-05,-1.0854337215423584,2.856,-1.0875999927520752,0.002,0.0
119,-8.189064828911796e-05,-1.083593487739563,2.88,-1.0857999324798584,0.002,0.0
120,-8.035711653064936e-05,-1.0817532539367676,2.904,-1.0839999914169312,0.002,0.0
121,-7.906895189080387e-05,-1.0802196264266968,2.928,-1.0821999311447144,0.002,0.0
122,-7.759676373098046e-05,-1.0783793926239014,2.952,-1.080399990081787,0.002,0.0
123,-7.61859118938446e-05,-1.0762324333190918,2.976,-1.0785999298095703,0.002,0.0
124,-7.502042717533186e-05,-1.0746989250183105,3.0,-1.076799988746643,0.002,0.0
125,-7.330287189688534e-05,-1.0728586912155151,3.024,-1.0749999284744263,0.002,0.0
126,-7.219873077701777e-05,-1.0707117319107056,3.048,-1.073199987411499,0.002,0.0
127,-7.054251909721643e-05,-1.0691782236099243,3.072,-1.0713999271392822,0.002,0.0
128,-6.949971430003643e-05,-1.067337989807129,3.096,-1.069599986076355,0.002,0.0
129,-6.796618254156783e-05,-1.0654977560043335,3.12,-1.0677999258041382,0.002,0.0
130,-6.680069782305509e-05,-1.063657522201538,3.144,-1.065999984741211,0.002,0.0
131,-6.563521310454234e-05,-1.0615105628967285,3.168,-1.0641999244689941,0.002,0.0
132,-6.422436854336411e-05,-1.0599770545959473,3.192,-1.062399983406067,0.002,0.0
133,-6.324290734482929e-05,-1.0581368207931519,3.216,-1.06059992313385,0.002,0.0
134,-6.177071918500587e-05,-1.0566033124923706,3.24,-1.0587999820709229,0.002,0.0
135,-6.0911937907803804e-05,-1.054456353187561,3.264,-1.056999921798706,0.002,0.0
136,-5.943974611000158e-05,-1.0526161193847656,3.288,-1.0551999807357788,0.002,0.0
137,-5.86423120694235e-05,-1.0507758855819702,3.312,-1.053399920463562,0.002,0.0
138,-5.741548739024438e-05,-1.049242377281189,3.336,-1.0515999794006348,0.002,0.0
139,-5.631134263239801e-05,-1.0474021434783936,3.36,-1.049799919128418,0.002,0.0
140,-5.539122503250837e-05,-1.0455619096755981,3.384,-1.0479999780654907,0.002,0.0
141,-5.4287080274662e-05,-1.0437216758728027,3.408,-1.046199917793274,0.002,0.0
142,-5.342830263543874e-05,-1.042188048362732,3.432,-1.0443999767303467,0.002,0.0
143,-5.207879439694807e-05,-1.0406545400619507,3.456,-1.0425999164581299,0.002,0.0
144,-5.128136035636999e-05,-1.0388143062591553,3.48,-1.0407999753952026,0.002,0.0
145,-5.0115875637857243e-05,-1.0369740724563599,3.504,-1.0389999151229858,0.002,0.0
146,-4.937977791996673e-05,-1.0351338386535645,3.528,-1.0371999740600586,0.002,0.0
147,-4.833697676076554e-05,-1.0329868793487549,3.552,-1.0353999137878418,0.002,0.0
148,-4.7232835640897974e-05,-1.0317600965499878,3.576,-1.0335999727249146,0.002,0.0
149,-4.655808152165264e-05,-1.0296131372451782,3.6,-1.0317999124526978,0.002,0.0
150,-4.533125684247352e-05,-1.0277729034423828,3.624,-1.0299999713897705,0.002,0.0
151,-4.477918264456093e-05,-1.0259326696395874,3.648,-1.0281999111175537,0.002,0.0
152,-4.342967804404907e-05,-1.0243991613388062,3.672,-1.0263999700546265,0.002,0.0
153,-4.281626388547011e-05,-1.0222522020339966,3.696,-1.0245999097824097,0.002,0.0
154,-4.177346272626892e-05,-1.0204119682312012,3.72,-1.0227999687194824,0.002,0.0
155,-4.07920015277341e-05,-1.0185717344284058,3.744,-1.0209999084472656,0.002,0.0
156,-3.9871883927844465e-05,-1.0170382261276245,3.768,-1.0191999673843384,0.002,0.0
157,-3.895176268997602e-05,-1.0151978731155396,3.792,-1.0173999071121216,0.002,0.0
158,-3.833835216937587e-05,-1.0136643648147583,3.816,-1.0155999660491943,0.002,0.0
159,-3.705018389155157e-05,-1.0115174055099487,3.84,-1.0137999057769775,0.002,0.0
160,-3.6436773370951414e-05,-1.0093705654144287,3.864,-1.0119999647140503,0.002,0.0
161,-3.520994505379349e-05,-1.008143663406372,3.888,-1.0101999044418335,0.002,0.0
162,-3.4535190934548154e-05,-1.0066101551055908,3.912,-1.0083999633789062,0.002,0.0
163,-3.361507333465852e-05,-1.004156470298767,3.936,-1.0065999031066895,0.002,0.0
164,-3.26336121361237e-05,-1.0023162364959717,3.96,-1.0047999620437622,0.002,0.0
165,-3.189751805621199e-05,-1.0007827281951904,3.984,-1.0029999017715454,0.002,0.0
166,-3.0916056857677177e-05,-0.998942494392395,4.008,-1.0011999607086182,0.002,0.0
167,-3.0302644518087618e-05,-0.9977156519889832,4.032,-0.9993999600410461,0.002,0.0
168,-2.919850157923065e-05,-0.9946485757827759,4.056,-0.9975999593734741,0.002,0.0
169,-2.8707772798952647e-05,-0.9934217929840088,4.08,-0.9957999587059021,0.002,0.0
170,-2.7542288080439903e-05,-0.9915815591812134,4.104,-0.9939999580383301,0.002,0.0
171,-2.680619218153879e-05,-0.9900479912757874,4.128,-0.9921999573707581,0.002,0.0
172,-2.5947414542315528e-05,-0.9879010915756226,4.152,-0.990399956703186,0.002,0.0
173,-2.4904613383114338e-05,-0.9863675236701965,4.176,-0.988599956035614,0.002,0.0
174,-2.441388278384693e-05,-0.984220564365387,4.2,-0.986799955368042,0.002,0.0
175,-2.324839988432359e-05,-0.9826870560646057,4.224,-0.98499995470047,0.002,0.0
176,-2.2696327505400404e-05,-0.9811535477638245,4.248,-0.983199954032898,0.002,0.0
177,-2.1530844605877064e-05,-0.979313313961029,4.272,-0.9813999533653259,0.002,0.0
178,-2.097877222695388e-05,-0.977779746055603,4.296,-0.9795999526977539,0.002,0.0
179,-1.9997312847408466e-05,-0.9753261208534241,4.32,-0.9777999520301819,0.002,0.0
180,-1.9077193428529426e-05,-0.9740992784500122,4.344,-0.9759999513626099,0.002,0.0
181,-1.8463781088939868e-05,-0.9716456532478333,4.368,-0.9741999506950378,0.002,0.0
182,-1.7175614630104974e-05,-0.9701120853424072,4.392,-0.9723999500274658,0.002,0.0
183,-1.6746225810493343e-05,-0.968578577041626,4.416,-0.9705999493598938,0.002,0.0
184,-1.5458057532669045e-05,-0.9664316177368164,4.44,-0.9687999486923218,0.002,0.0
185,-1.509001049271319e-05,-0.964591383934021,4.464,-0.9669999480247498,0.002,0.0
186,-1.3801844033878297e-05,-0.9633645415306091,4.488,-0.9651999473571777,0.002,0.0
187,-1.3065749044471886e-05,-0.9615243077278137,4.512,-0.9633999466896057,0.002,0.0
188,-1.2022946975775994e-05,-0.9593773484230042,4.536,-0.9615999460220337,0.002,0.0
189,-1.1164169336552732e-05,-0.9581505656242371,4.56,-0.9597999453544617,0.002,0.0
190,-1.0428074347146321e-05,-0.9556968808174133,4.584,-0.9579999446868896,0.002,0.0
191,-9.262590538128279e-06,-0.9541633725166321,4.608,-0.9561999440193176,0.002,0.0
192,-8.587836418882944e-06,-0.9520164132118225,4.632,-0.9543999433517456,0.002,0.0
193,-7.361010830209125e-06,-0.9498694539070129,4.656,-0.9525999426841736,0.002,0.0
194,-6.8089393607806414e-06,-0.9486426711082458,4.68,-0.9507999420166016,0.002,0.0
195,-5.459431577037321e-06,-0.9468024373054504,4.704,-0.9489999413490295,0.002,0.0
196,-4.600653937814059e-06,-0.9452688694000244,4.728,-0.9471999406814575,0.002,0.0
197,-3.6805347463086946e-06,-0.943428635597229,4.752,-0.9453999400138855,0.002,0.0
198,-2.5150507099169772e-06,-0.9412816762924194,4.776,-0.9435999393463135,0.002,0.0
199,-1.7176142819153029e-06,-0.9391347765922546,4.8,-0.9417999386787415,0.002,0.0
200,-3.6810632764172624e-07,-0.9382146596908569,4.824,-0.9399999380111694,0.002,0.0
201,3.679888891383598e-07,-0.9366810917854309,4.848,-0.9381999373435974,0.002,0.0
202,1.7174967297250987e-06,-0.934227466583252,4.872,-0.9363999366760254,0.002,0.0
203,2.637615807543625e-06,-0.9326938986778259,4.896,-0.9345999360084534,0.002,0.0
204,3.8644411688437685e-06,-0.9305469989776611,4.92,-0.9327999353408813,0.002,0.0
205,5.029925432609161e-06,-0.9287067651748657,4.944,-0.9309999346733093,0.002,0.0
206,6.072726591810351e-06,-0.9268665313720703,4.968,-0.9291999340057373,0.002,0.0
207,7.606258350278949e-06,-0.9250262379646301,4.992,-0.9273999333381653,0.002,0.0
208,8.465036444249563e-06,-0.9234927296638489,5.016,-0.9255999326705933,0.002,0.0
209,1.0121250852535013e-05,-0.9213457703590393,5.04,-0.9237999320030212,0.002,0.0
210,1.1041369361919351e-05,-0.9198122620582581,5.064,-0.9219999313354492,0.002,0.0
211,1.2574901120387949e-05,-0.9176653027534485,5.088,-0.9201999306678772,0.002,0.0
212,1.3740384929405991e-05,-0.9164384603500366,5.112,-0.9183999300003052,0.002,0.0
213,1.5212575817713514e-05,-0.9145982265472412,5.136,-0.9165999293327332,0.002,0.0
214,1.6623424016870558e-05,-0.9124513268470764,5.16,-0.9147999882698059,0.002,0.0
215,1.7911592294694856e-05,-0.9109177589416504,5.184,-0.9129999876022339,0.002,0.0
216,1.975182931346353e-05,-0.909077525138855,5.208,-0.9111999869346619,0.002,0.0
217,2.079463047266472e-05,-0.9072372913360596,5.232,-0.9093999862670898,0.002,0.0
218,2.2573527530767024e-05,-0.9053970575332642,5.256,-0.9075999855995178,0.002,0.0
219,2.3800354028935544e-05,-0.9029434323310852,5.28,-0.9057999849319458,0.002,0.0
220,2.551790930738207e-05,-0.9014098644256592,5.304,-0.9039999842643738,0.002,0.0
221,2.699009928619489e-05,-0.8995696306228638,5.328,-0.9021999835968018,0.002,0.0
222,2.8462289265007712e-05,-0.8983427882194519,5.352,-0.9003999829292297,0.002,0.0
223,3.0179844543454237e-05,-0.8965025544166565,5.376,-0.8985999822616577,0.002,0.0
224,3.1590694561600685e-05,-0.8940489292144775,5.4,-0.8967999815940857,0.002,0.0
225,3.3430933399358764e-05,-0.8922086954116821,5.424,-0.8949999809265137,0.002,0.0
226,3.4719098039204255e-05,-0.8906751275062561,5.448,-0.8931999802589417,0.002,0.0
227,3.6559336876962334e-05,-0.8891416192054749,5.472,-0.8913999795913696,0.002,0.0
228,3.809286863543093e-05,-0.8873013854026794,5.496,-0.8895999789237976,0.002,0.0
229,3.981042391387746e-05,-0.8857678771018982,5.52,-0.8877999782562256,0.002,0.0
230,4.146663923165761e-05,-0.8839276432991028,5.544,-0.8859999775886536,0.002,0.0
231,4.306151095079258e-05,-0.881473958492279,5.568,-0.8841999769210815,0.002,0.0
232,4.490174978855066e-05,-0.8802471160888672,5.592,-0.8823999762535095,0.002,0.0
233,4.625125802704133e-05,-0.8784068822860718,5.616,-0.8805999755859375,0.002,0.0
234,4.852088386542164e-05,-0.8765666484832764,5.64,-0.8787999749183655,0.002,0.0
235,4.987039210391231e-05,-0.874726414680481,5.664,-0.8769999742507935,0.002,0.0
236,5.195599442231469e-05,-0.8731929063796997,5.688,-0.8751999735832214,0.002,0.0
237,5.355086977942847e-05,-0.8710459470748901,5.712,-0.8733999729156494,0.002,0.0
238,5.526842505787499e-05,-0.8695124387741089,5.736,-0.8715999722480774,0.002,0.0
239,5.7170003856299445e-05,-0.8673654794692993,5.76,-0.8697999715805054,0.002,0.0
240,5.870353561476804e-05,-0.8655252456665039,5.784,-0.8679999709129333,0.002,0.0
241,6.091182149248198e-05,-0.8633782863616943,5.808,-0.8661999702453613,0.002,0.0
