,current,potential,elapsed_time,applied_potential,current_range,segment
0,-0.0006062971660867333,-1.29859459400177,0.024,-1.2999999523162842,0.002,0.0
1,-0.0005635423003695905,-1.2961409091949463,0.048,-1.298200011253357,0.002,0.0
2,-0.0005361227667890489,-1.2943006753921509,0.072,-1.2963999509811401,0.002,0.0
3,-0.0005154507234692574,-1.2924604415893555,0.096,-1.294600009918213,0.002,0.0
4,-0.0004986432031728327,-1.29062020778656,0.12,-1.292799949645996,0.002,0.0
5,-0.0004849641118198633,-1.2887799739837646,0.144,-1.2910000085830688,0.002,0.0
6,-0.0004725118342321366,-1.2869397401809692,0.168,-1.289199948310852,0.002,0.0
7,-0.00046269723679870367,-1.2850995063781738,0.192,-1.2874000072479248,0.002,0.0
8,-0.00045306666288524866,-1.2832592725753784,0.216,-1.285599946975708,0.002,0.0
9,-0.0004452763241715729,-1.281419038772583,0.24,-1.2838000059127808,0.002,0.0
10,-0.00043809940689243376,-1.2792720794677734,0.264,-1.281999945640564,0.002,0.0
11,-0.00043239464866928756,-1.2780452966690063,0.288,-1.2802000045776367,0.002,0.0
12,-0.0004284688038751483,-1.2758983373641968,0.312,-1.27839994430542,0.002,0.0
13,-0.0004239909176249057,-1.2743648290634155,0.336,-1.2766000032424927,0.002,0.0
14,-0.000419083604356274,-1.2728312015533447,0.36,-1.2747999429702759,0.002,0.0
15,-0.00041313350084237754,-1.2709909677505493,0.384,-1.2730000019073486,0.002,0.0
16,-0.0004086555854883045,-1.2688441276550293,0.408,-1.2711999416351318,0.002,0.0
17,-0.0004038096230942756,-1.2670038938522339,0.432,-1.2694000005722046,0.002,0.0
18,-0.00039988377830013633,-1.265163540840149,0.456,-1.2675999402999878,0.002,0.0
19,-0.00039534454117529094,-1.2639367580413818,0.48,-1.2657999992370605,0.002,0.0
20,-0.0003910506493411958,-1.2620965242385864,0.504,-1.2639999389648438,0.002,0.0
21,-0.0003872474771924317,-1.2596428394317627,0.528,-1.2621999979019165,0.002,0.0
22,-0.00038301493623293936,-1.2581093311309814,0.552,-1.2603999376296997,0.002,0.0
23,-0.000379763834644109,-1.2565758228302002,0.576,-1.2585999965667725,0.002,0.0
24,-0.00037540862103924155,-1.2544288635253906,0.6,-1.2567999362945557,0.002,0.0
25,-0.00037203484680503607,-1.2528953552246094,0.624,-1.2549999952316284,0.002,0.0
26,-0.00036786365672014654,-1.251055121421814,0.648,-1.2531999349594116,0.002,0.0
27,-0.0003641218354459852,-1.2492148876190186,0.672,-1.2513999938964844,0.002,0.0
28,-0.0003599506162572652,-1.247067928314209,0.696,-1.2495999336242676,0.002,0.0
29,-0.0003545525833033025,-1.2455344200134277,0.72,-1.2477999925613403,0.002,0.0
30,-0.0003449833602644503,-1.2436941862106323,0.744,-1.2459999322891235,0.002,0.0
31,-0.0003380517882760614,-1.241853952407837,0.768,-1.2441999912261963,0.002,0.0
32,-0.00033363522379659116,-1.2403203248977661,0.792,-1.2423999309539795,0.002,0.0
33,-0.0003289732849225402,-1.238173484802246,0.816,-1.2405999898910522,0.002,0.0
34,-0.0003249247674830258,-1.2369465827941895,0.84,-1.2387999296188354,0.002,0.0
35,-0.00032112159533426166,-1.235106348991394,0.864,-1.2369999885559082,0.002,0.0
36,-0.00031829989165998995,-1.2326527833938599,0.888,-1.2351999282836914,0.002,0.0
37,-0.00031560088973492384,-1.231119155883789,0.912,-1.2333999872207642,0.002,0.0
38,-0.00031290185870602727,-1.2295856475830078,0.936,-1.2315999269485474,0.002,0.0
39,-0.0003112456470262259,-1.2280521392822266,0.96,-1.2297999858856201,0.002,0.0
40,-0.00030891469214111567,-1.2255984544754028,0.984,-1.2279999256134033,0.002,0.0
41,-0.00030799457454122603,-1.2240649461746216,1.008,-1.226199984550476,0.002,0.0
42,-0.0003067677316721529,-1.2222247123718262,1.032,-1.2243999242782593,0.002,0.0
43,-0.00030744250398129225,-1.2203844785690308,1.056,-1.222599983215332,0.002,0.0
44,-0.0003087919903919101,-1.2185442447662354,1.08,-1.2207999229431152,0.002,0.0
45,-0.00030916003743186593,-1.2163972854614258,1.104,-1.218999981880188,0.002,0.0
46,-0.0003075651766266674,-1.2148637771606445,1.128,-1.2171999216079712,0.002,0.0
47,-0.00030541824526153505,-1.2130235433578491,1.152,-1.215399980545044,0.002,0.0
48,-0.0003042527532670647,-1.2114900350570679,1.176,-1.2135999202728271,0.002,0.0
49,-0.00030186044750735164,-1.2093430757522583,1.2,-1.2117999792099,0.002,0.0
50,-0.00030002021230757236,-1.2071961164474487,1.224,-1.209999918937683,0.002,0.0
51,-0.00029744385392405093,-1.2065826654434204,1.248,-1.2081999778747559,0.002,0.0
52,-0.0002952969225589186,-1.2044357061386108,1.272,-1.206399917602539,0.002,0.0
53,-0.0002927205932792276,-1.2022887468338013,1.296,-1.2045999765396118,0.002,0.0
54,-0.0002898988896049559,-1.20075523853302,1.32,-1.202799916267395,0.002,0.0
55,-0.00028750658384524286,-1.1992217302322388,1.344,-1.2009999752044678,0.002,0.0
56,-0.00028443950577639043,-1.1970747709274292,1.368,-1.199199914932251,0.002,0.0
57,-0.0002821085508912802,-1.1949278116226196,1.392,-1.1973999738693237,0.002,0.0
58,-0.00027836672961711884,-1.1933943033218384,1.416,-1.195599913597107,0.002,0.0
59,-0.0002753610024228692,-1.1921675205230713,1.44,-1.1937999725341797,0.002,0.0
60,-0.00027149650850333273,-1.1900205612182617,1.464,-1.191999912261963,0.002,0.0
61,-0.0002671412948984653,-1.1881803274154663,1.488,-1.1901999711990356,0.002,0.0
62,-0.0002567745978012681,-1.186340093612671,1.512,-1.1883999109268188,0.002,0.0
63,-0.00024892293731682,-1.1841931343078613,1.536,-1.1865999698638916,0.002,0.0
64,-0.00024401562404818833,-1.18265962600708,1.56,-1.1847999095916748,0.002,0.0
65,-0.00023916966165415943,-1.1805126667022705,1.584,-1.1829999685287476,0.002,0.0
66,-0.00023469174630008638,-1.1789791584014893,1.608,-1.1811999082565308,0.002,0.0
67,-0.00023015249462332577,-1.1777522563934326,1.632,-1.1793999671936035,0.002,0.0
68,-0.00022714676742907614,-1.1752986907958984,1.656,-1.1775999069213867,0.002,0.0
69,-0.00022377300774678588,-1.1737650632858276,1.68,-1.1757999658584595,0.002,0.0
70,-0.00022076728055253625,-1.1719248294830322,1.704,-1.1739999055862427,0.002,0.0
71,-0.00021855899831280112,-1.1700845956802368,1.728,-1.1721999645233154,0.002,0.0
72,-0.00021641205239575356,-1.1685510873794556,1.752,-1.1703999042510986,0.002,0.0
73,-0.00021536924759857357,-1.1667108535766602,1.776,-1.1685999631881714,0.002,0.0
74,-0.00021469448984134942,-1.165177345275879,1.8,-1.1667999029159546,0.002,0.0
75,-0.00021616669255308807,-1.1627236604690552,1.824,-1.1649999618530273,0.002,0.0
76,-0.0002186203346354887,-1.161190152168274,1.848,-1.1631999015808105,0.002,0.0
77,-0.00022082861687522382,-1.1593499183654785,1.872,-1.1613999605178833,0.002,0.0
78,-0.00022046056983526796,-1.157202959060669,1.896,-1.1595999002456665,0.002,0.0
79,-0.0002193564287154004,-1.1559761762619019,1.92,-1.1577999591827393,0.002,0.0
80,-0.00021898838167544454,-1.1538292169570923,1.944,-1.1559998989105225,0.002,0.0
81,-0.0002176388807129115,-1.1519889831542969,1.968,-1.1541999578475952,0.002,0.0
82,-0.0002173321699956432,-1.1501487493515015,1.992,-1.1523998975753784,0.002,0.0
83,-0.00021549193479586393,-1.148308515548706,2.016,-1.1505999565124512,0.002,0.0
84,-0.0002145718171959743,-1.1467750072479248,2.04,-1.1487998962402344,0.002,0.0
85,-0.00021285425464157015,-1.144321322441101,2.064,-1.1469999551773071,0.002,0.0
86,-0.0002117501135217026,-1.1430944204330444,2.088,-1.1452000141143799,0.002,0.0
87,-0.0002102165890391916,-1.1415609121322632,2.112,-1.143399953842163,0.002,0.0
88,-0.00020825366664212197,-1.1394139528274536,2.136,-1.1416000127792358,0.002,0.0
89,-0.00020672012760769576,-1.1378804445266724,2.16,-1.139799952507019,0.002,0.0
90,-0.00020420513465069234,-1.1357334852218628,2.184,-1.1380000114440918,0.002,0.0
91,-0.00020236489945091307,-1.1338932514190674,2.208,-1.136199951171875,0.002,0.0
92,-0.00019905247609131038,-1.1323597431182861,2.232,-1.1344000101089478,0.002,0.0
93,-0.00019120078650303185,-1.1302127838134766,2.256,-1.132599949836731,0.002,0.0
94,-0.00018285837722942233,-1.1289860010147095,2.28,-1.1308000087738037,0.002,0.0
95,-0.00017635620315559208,-1.1265323162078857,2.304,-1.128999948501587,0.002,0.0
96,-0.0001724917092360556,-1.1249988079071045,2.328,-1.1272000074386597,0.002,0.0
97,-0.00016746172332204878,-1.123158574104309,2.352,-1.1253999471664429,0.002,0.0
98,-0.00016402661276515573,-1.1216250658035278,2.376,-1.1236000061035156,0.002,0.0
99,-0.0001607755257282406,-1.1194781064987183,2.4,-1.1217999458312988,0.002,0.0
100,-0.00015881260333117098,-1.117944598197937,2.424,-1.1200000047683716,0.002,0.0
101,-0.00015635894669685513,-1.1157976388931274,2.448,-1.1181999444961548,0.002,0.0
102,-0.00015525480557698756,-1.1145707368850708,2.472,-1.1164000034332275,0.002,0.0
103,-0.00015415066445712,-1.1127305030822754,2.496,-1.1145999431610107,0.002,0.0
104,-0.0001538439537398517,-1.1105835437774658,2.52,-1.1128000020980835,0.002,0.0
105,-0.00015451871149707586,-1.1087433099746704,2.544,-1.1109999418258667,0.002,0.0
106,-0.00015562285261694342,-1.1072098016738892,2.568,-1.1092000007629395,0.002,0.0
107,-0.00015893529052846134,-1.1053695678710938,2.592,-1.1073999404907227,0.002,0.0
108,-0.0001630451442906633,-1.1035293340682983,2.616,-1.1055999994277954,0.002,0.0
109,-0.00016635758220218122,-1.1023025512695312,2.64,-1.1037999391555786,0.002,0.0
110,-0.00016678696556482464,-1.0998488664627075,2.664,-1.1019999980926514,0.002,0.0
111,-0.00016746172332204878,-1.098008632659912,2.688,-1.1001999378204346,0.002,0.0
112,-0.00016825915372464806,-1.0961683988571167,2.712,-1.0983999967575073,0.002,0.0
113,-0.00016832050459925085,-1.0943281650543213,2.736,-1.0965999364852905,0.002,0.0
114,-0.00016844317724462599,-1.0931013822555542,2.76,-1.0947999954223633,0.002,0.0
115,-0.0001676457468420267,-1.0909544229507446,2.784,-1.0929999351501465,0.002,0.0
116,-0.000167952457559295,-1.0891141891479492,2.808,-1.0911999940872192,0.002,0.0
117,-0.00016697098908480257,-1.0869672298431396,2.832,-1.0893999338150024,0.002,0.0
118,-0.00016666427836753428,-1.0851269960403442,2.856,-1.0875999927520752,0.002,0.0
119,-0.0001656214881222695,-1.0832867622375488,2.88,-1.0857999324798584,0.002,0.0
120,-0.00016494673036504537,-1.0817532539367676,2.904,-1.0839999914169312,0.002,0.0
121,-0.00016414928541053087,-1.080526351928711,2.928,-1.0821999311447144,0.002,0.0
122,-0.00016249307373072952,-1.0777660608291626,2.952,-1.080399990081787,0.002,0.0
123,-0.00016138893261086196,-1.0762324333190918,2.976,-1.0785999298095703,0.002,0.0
124,-0.00015868991613388062,-1.0746989250183105,3.0,-1.076799988746643,0.002,0.0
125,-0.00015188103134278208,-1.0731654167175293,3.024,-1.0749999284744263,0.002,0.0
126,-0.00014531752094626427,-1.0707117319107056,3.048,-1.073199987411499,0.002,0.0
127,-0.0001406555820722133,-1.0691782236099243,3.072,-1.0713999271392822,0.002,0.0
128,-0.00013679108815267682,-1.0679514408111572,3.096,-1.069599986076355,0.002,0.0
129,-0.00013292657968122512,-1.0658044815063477,3.12,-1.0677999258041382,0.002,0.0
130,-0.00013010489055886865,-1.0642709732055664,3.144,-1.065999984741211,0.002,0.0
131,-0.0001276512339245528,-1.0618172883987427,3.168,-1.0641999244689941,0.002,0.0
132,-0.00012654709280468524,-1.0605905055999756,3.192,-1.062399983406067,0.002,0.0
133,-0.00012446149776224047,-1.058443546295166,3.216,-1.06059992313385,0.002,0.0
134,-0.0001238480763277039,-1.0569100379943848,3.24,-1.0587999820709229,0.002,0.0
135,-0.00012298929505050182,-1.0550698041915894,3.264,-1.056999921798706,0.002,0.0
136,-0.00012292795872781426,-1.0529228448867798,3.288,-1.0551999807357788,0.002,0.0
137,-0.0001232960057677701,-1.0516959428787231,3.312,-1.053399920463562,0.002,0.0
138,-0.00012452283408492804,-1.0498557090759277,3.336,-1.0515999794006348,0.002,0.0
139,-0.00012734453775919974,-1.0474021434783936,3.36,-1.049799919128418,0.002,0.0
140,-0.00013059562479611486,-1.0458685159683228,3.384,-1.0479999780654907,0.002,0.0
141,-0.00013390804815571755,-1.0437216758728027,3.408,-1.046199917793274,0.002,0.0
142,-0.00013476682943291962,-1.042188048362732,3.432,-1.0443999767303467,0.002,0.0
143,-0.00013568694703280926,-1.0403478145599365,3.456,-1.0425999164581299,0.002,0.0
144,-0.00013593230687547475,-1.0391210317611694,3.48,-1.0407999753952026,0.002,0.0
145,-0.0001363617047900334,-1.0366673469543457,3.504,-1.0389999151229858,0.002,0.0
146,-0.00013679108815267682,-1.0351338386535645,3.528,-1.0371999740600586,0.002,0.0
147,-0.00013642304111272097,-1.0329868793487549,3.552,-1.0353999137878418,0.002,0.0
148,-0.00013654572831001133,-1.0314533710479736,3.576,-1.0335999727249146,0.002,0.0
149,-0.0001358096196781844,-1.0296131372451782,3.6,-1.0317999124526978,0.002,0.0
150,-0.00013599364319816232,-1.0277729034423828,3.624,-1.0299999713897705,0.002,0.0
151,-0.00013495085295289755,-1.0256259441375732,3.648,-1.0281999111175537,0.002,0.0
152,-0.0001345828059129417,-1.0247057676315308,3.672,-1.0263999700546265,0.002,0.0
153,-0.0001335400011157617,-1.0225589275360107,3.696,-1.0245999097824097,0.002,0.0
154,-0.0001324971963185817,-1.0207186937332153,3.72,-1.0227999687194824,0.002,0.0
155,-0.0001314543915214017,-1.0191850662231445,3.744,-1.0209999084472656,0.002,0.0
156,-0.00012967549264431,-1.0173448324203491,3.768,-1.0191999673843384,0.002,0.0
157,-0.00012697649071924388,-1.0151978731155396,3.792,-1.0173999071121216,0.002,0.0
158,-0.00012084235640941188,-1.0133576393127441,3.816,-1.0155999660491943,0.002,0.0
159,-0.00011716187873389572,-1.012130856513977,3.84,-1.0137999057769775,0.002,0.0
160,-0.00011335872113704681,-1.0096771717071533,3.864,-1.0119999647140503,0.002,0.0
161,-0.00011023031402146444,-1.0084503889083862,3.888,-1.0101999044418335,0.002,0.0
162,-0.00010691789066186175,-1.006916880607605,3.912,-1.0083999633789062,0.002,0.0
163,-0.00010440289770485833,-1.0047699213027954,3.936,-1.0065999031066895,0.002,0.0
164,-0.00010299204586772248,-1.0023162364959717,3.96,-1.0047999620437622,0.002,0.0
165,-0.00010102913074661046,-1.0013961791992188,3.984,-1.0029999017715454,0.002,0.0
166,-0.0001004157165880315,-0.9992492198944092,4.008,-1.0011999607086182,0.002,0.0
167,-9.918888827087358e-05,-0.9971022605895996,4.032,-0.9993999600410461,0.002,0.0
168,-9.906620834954083e-05,-0.9955687522888184,4.056,-0.9975999593734741,0.002,0.0
169,-9.857547411229461e-05,-0.9937284588813782,4.08,-0.9957999587059021,0.002,0.0
170,-9.943425538949668e-05,-0.9915815591812134,4.104,-0.9939999580383301,0.002,0.0
171,-0.0001009064435493201,-0.9900479912757874,4.128,-0.9921999573707581,0.002,0.0
172,-0.00010293070954503492,-0.9879010915756226,4.152,-0.990399956703186,0.002,0.0
173,-0.0001050163118634373,-0.9866742491722107,4.176,-0.988599956035614,0.002,0.0
174,-0.00010483228834345937,-0.9845272898674011,4.2,-0.986799955368042,0.002,0.0
175,-0.00010538435890339315,-0.9826870560646057,4.224,-0.98499995470047,0.002,0.0
176,-0.00010489362466614693,-0.9811535477638245,4.248,-0.983199954032898,0.002,0.0
177,-0.00010495496826479211,-0.979313313961029,4.272,-0.9813999533653259,0.002,0.0
178,-0.0001042188741848804,-0.9780864715576172,4.296,-0.9795999526977539,0.002,0.0
179,-0.00010354411642765626,-0.9753261208534241,4.32,-0.9777999520301819,0.002,0.0
180,-0.00010311473306501284,-0.9744060039520264,4.344,-0.9759999513626099,0.002,0.0
181,-0.00010188790474785492,-0.9722590446472168,4.368,-0.9741999506950378,0.002,0.0
182,-0.00010133583418792114,-0.9701120853424072,4.392,-0.9723999500274658,0.002,0.0
183,-9.980230242945254e-05,-0.968578577041626,4.416,-0.9705999493598938,0.002,0.0
184,-9.918888827087358e-05,-0.9664316177368164,4.44,-0.9687999486923218,0.002,0.0
185,-9.753267659107223e-05,-0.9652047753334045,4.464,-0.9669999480247498,0.002,0.0
186,-9.630584827391431e-05,-0.9624444246292114,4.488,-0.9651999473571777,0.002,0.0
187,-9.471098019275814e-05,-0.9612176418304443,4.512,-0.9633999466896057,0.002,0.0
188,-9.287073771702126e-05,-0.9593773484230042,4.536,-0.9615999460220337,0.002,0.0
189,-8.906758012017235e-05,-0.9578438401222229,4.56,-0.9597999453544617,0.002,0.0
190,-8.514173532603309e-05,-0.9560036063194275,4.584,-0.9579999446868896,0.002,0.0
191,-8.244272612500936e-05,-0.9541633725166321,4.608,-0.9561999440193176,0.002,0.0
192,-7.931431900942698e-05,-0.9520164132118225,4.632,-0.9543999433517456,0.002,0.0
193,-7.704469317104667e-05,-0.9504829049110413,4.656,-0.9525999426841736,0.002,0.0
194,-7.41616531740874e-05,-0.9486426711082458,4.68,-0.9507999420166016,0.002,0.0
195,-7.244409789564088e-05,-0.9468024373054504,4.704,-0.9489999413490295,0.002,0.0
196,-7.072654261719435e-05,-0.944962203502655,4.728,-0.9471999406814575,0.002,0.0
197,-6.894764374010265e-05,-0.9437353610992432,4.752,-0.9453999400138855,0.002,0.0
198,-6.796618254156783e-05,-0.9412816762924194,4.776,-0.9435999393463135,0.002,0.0
199,-6.624862726312131e-05,-0.9397481679916382,4.8,-0.9417999386787415,0.002,0.0
200,-6.581923662452027e-05,-0.9376012086868286,4.824,-0.9399999380111694,0.002,0.0
201,-6.465375190600753e-05,-0.9360677003860474,4.848,-0.9381999373435974,0.002,0.0
202,-6.489911902463064e-05,-0.934227466583252,4.872,-0.9363999366760254,0.002,0.0
203,-6.483777542598546e-05,-0.9323872327804565,4.896,-0.9345999360084534,0.002,0.0
204,-6.55125331832096e-05,-0.9305469989776611,4.92,-0.9327999353408813,0.002,0.0
205,-6.55125331832096e-05,-0.9290134310722351,4.944,-0.9309999346733093,0.002,0.0
206,-6.453107198467478e-05,-0.9268665313720703,4.968,-0.9291999340057373,0.002,0.0
207,-6.404034502338618e-05,-0.9259464144706726,4.992,-0.9273999333381653,0.002,0.0
208,-6.256814958760515e-05,-0.9234927296638489,5.016,-0.9255999326705933,0.002,0.0
209,-6.207742262631655e-05,-0.9216524958610535,5.04,-0.9237999320030212,0.002,0.0
210,-6.078925434849225e-05,-0.9195055365562439,5.064,-0.9219999313354492,0.002,0.0
211,-5.9869136748602614e-05,-0.9182787537574768,5.088,-0.9201999306678772,0.002,0.0
212,-5.870365203008987e-05,-0.9167451858520508,5.112,-0.9183999300003052,0.002,0.0
213,-5.741548739024438e-05,-0.9142915606498718,5.136,-0.9165999293327332,0.002,0.0
214,-5.6495366152375937e-05,-0.9124513268470764,5.16,-0.9147999882698059,0.002,0.0
215,-5.4839150834595785e-05,-0.9115312099456787,5.184,-0.9129999876022339,0.002,0.0
216,-5.4103056754684076e-05,-0.909077525138855,5.208,-0.9111999869346619,0.002,0.0
217,-5.214013799559325e-05,-0.9072372913360596,5.232,-0.9093999862670898,0.002,0.0
218,-5.134270031703636e-05,-0.9060104489326477,5.256,-0.9075999855995178,0.002,0.0
219,-4.950246147927828e-05,-0.9041702151298523,5.28,-0.9057999849319458,0.002,0.0
220,-4.809161328012124e-05,-0.9017165899276733,5.304,-0.9039999842643738,0.002,0.0
221,-4.6128690883051604e-05,-0.9001830816268921,5.328,-0.9021999835968018,0.002,0.0
222,-4.2202849726891145e-05,-0.8980361223220825,5.352,-0.9003999829292297,0.002,0.0
223,-3.9871883927844465e-05,-0.8968092799186707,5.376,-0.8985999822616577,0.002,0.0
224,-3.6988843930885196e-05,-0.8949690461158752,5.4,-0.8967999815940857,0.002,0.0
225,-3.520994505379349e-05,-0.8925154209136963,5.424,-0.8949999809265137,0.002,0.0
226,-3.2449588616145775e-05,-0.8909818530082703,5.448,-0.8931999802589417,0.002,0.0
227,-3.079337693634443e-05,-0.889448344707489,5.472,-0.8913999795913696,0.002,0.0
228,-2.8830454539274797e-05,-0.8876081109046936,5.496,-0.8895999789237976,0.002,0.0
229,-2.717424104048405e-05,-0.885461151599884,5.52,-0.8877999782562256,0.002,0.0
230,-2.5824732801993378e-05,-0.8836209177970886,5.544,-0.8859999775886536,0.002,0.0
231,-2.4352542823180556e-05,-0.8820873498916626,5.568,-0.8841999769210815,0.002,0.0
232,-2.3739128664601594e-05,-0.8802471160888672,5.592,-0.8823999762535095,0.002,0.0
233,-2.232828046544455e-05,-0.8781002163887024,5.616,-0.8805999755859375,0.002,0.0
234,-2.2512303985422477e-05,-0.8768733739852905,5.64,-0.8787999749183655,0.002,0.0
235,-2.2082915165810846e-05,-0.874726414680481,5.664,-0.8769999742507935,0.002,0.0
236,-2.3064376364345662e-05,-0.8734995722770691,5.688,-0.8751999735832214,0.002,0.0
237,-2.288035102537833e-05,-0.8713526725769043,5.712,-0.8733999729156494,0.002,0.0
238,-2.2205596906132996e-05,-0.8698191046714783,5.736,-0.8715999722480774,0.002,0.0
239,-2.1776208086521365e-05,-0.8673654794692993,5.76,-0.8697999715805054,0.002,0.0
240,-2.0733406927320175e-05,-0.8655252456665039,5.784,-0.8679999709129333,0.002,0.0
