,current,potential,elapsed_time,applied_potential,current_range,segment
0,-1.883177537820302e-05,-1.0075302124023438,1.0,-1.0081782341003418,0.0002,0.0
1,-1.467897163820453e-05,-1.0026229619979858,2.0,-1.0031782388687134,0.0002,0.0
2,-1.2642441106436308e-05,-0.9977156519889832,3.0,-0.998178243637085,0.0002,0.0
3,-1.1249994713580236e-05,-0.9925016760826111,4.0,-0.9931782484054565,0.0002,0.0
4,-1.006610818876652e-05,-0.9875943660736084,5.0,-0.9881782531738281,0.0002,0.0
5,-9.084647899726406e-06,-0.9826870560646057,6.0,-0.9831782579421997,0.0002,0.0
6,-8.287211130664218e-06,-0.9774730205535889,7.0,-0.9781782627105713,0.0002,0.0
7,-7.551116141257808e-06,-0.972565770149231,8.0,-0.9731782078742981,0.0002,0.0
8,-6.894764283060795e-06,-0.9676584601402283,9.0,-0.9681782126426697,0.0002,0.0
9,-6.330424639600096e-06,-0.9624444246292114,10.0,-0.9631782174110413,0.0002,0.0
10,-5.821292234031716e-06,-0.9575371146202087,11.0,-0.9581782221794128,0.0002,0.0
11,-5.342830263543874e-06,-0.9526298642158508,12.0,-0.9531782269477844,0.0002,0.0
12,-4.931843704980565e-06,-0.947415828704834,13.0,-0.948178231716156,0.0002,0.0
13,-4.557662123261252e-06,-0.9425085186958313,14.0,-0.9431782364845276,0.0002,0.0
14,-4.214150976622477e-06,-0.9376012086868286,15.0,-0.9381782412528992,0.0002,0.0
15,-3.907444806827698e-06,-0.9326938986778259,16.0,-0.9331782460212708,0.0002,0.0
16,-3.6191406707075657e-06,-0.9274799227714539,17.0,-0.9281782507896423,0.0002,0.0
17,-3.3492390230094315e-06,-0.9225726127624512,18.0,-0.9231782555580139,0.0002,0.0
18,-3.110008265139186e-06,-0.9176653027534485,19.0,-0.9181782603263855,0.0002,0.0
19,-2.8830454539274797e-06,-0.9124513268470764,20.0,-0.9131782650947571,0.0002,0.0
20,-2.680619218153879e-06,-0.9075440168380737,21.0,-0.9081782102584839,0.0002,0.0
21,-2.490461383786169e-06,-0.902636706829071,22.0,-0.9031782150268555,0.0002,0.0
22,-2.3125717234506737e-06,-0.8977293968200684,23.0,-0.898178219795227,0.0002,0.0
23,-2.1469502371473936e-06,-0.8925154209136963,24.0,-0.8931782245635986,0.0002,0.0
24,-1.9874630652338965e-06,-0.8876081109046936,25.0,-0.8881782293319702,0.0002,0.0
25,-1.8402439536657766e-06,-0.8827008008956909,26.0,-0.8831782341003418,0.0002,0.0
26,-1.699159042800602e-06,-0.8774867653846741,27.0,-0.8781782388687134,0.0002,0.0
27,-1.5580741319354274e-06,-0.8725794553756714,28.0,-0.873178243637085,0.0002,0.0
28,-1.4108550203673076e-06,-0.8676722049713135,29.0,-0.8681782484054565,0.0002,0.0
29,-1.2820383972211857e-06,-0.8624581694602966,30.0,-0.8631782531738281,0.0002,0.0
30,-1.1470875733721186e-06,-0.857550859451294,31.0,-0.8581782579421997,0.0002,0.0
31,-1.0182709502259968e-06,-0.8526435494422913,32.0,-0.8531782627105713,0.0002,0.0
32,-9.0172250111209e-07,-0.8477362394332886,33.0,-0.8481782674789429,0.0002,0.0
33,-7.85174108841602e-07,-0.8425222635269165,34.0,-0.8431782126426697,0.0002,0.0
34,-6.808939474467479e-07,-0.8376149535179138,35.0,-0.8381782174110413,0.0002,0.0
35,-5.704796421923675e-07,-0.8327076435089111,36.0,-0.8331782221794128,0.0002,0.0
36,-4.661995092192228e-07,-0.8274936676025391,37.0,-0.8281782269477844,0.0002,0.0
37,-3.6191934782436874e-07,-0.8225863575935364,38.0,-0.823178231716156,0.0002,0.0
38,-2.5763918642951467e-07,-0.8176790475845337,39.0,-0.8181782364845276,0.0002,0.0
39,-1.4722490959684364e-07,-0.812771737575531,40.0,-0.8131782412528992,0.0002,0.0
40,-4.2944762412844284e-08,-0.8075577616691589,41.0,-0.8081782460212708,0.0002,0.0
41,6.133539187658243e-08,-0.8026504516601562,42.0,-0.8031782507896423,0.0002,0.0
42,1.6561554616600915e-07,-0.7977431416511536,43.0,-0.7981782555580139,0.0002,0.0
43,2.760298229986802e-07,-0.7925291061401367,44.0,-0.7931782603263855,0.0002,0.0
44,3.9257824369087757e-07,-0.787621796131134,45.0,-0.7881782650947571,0.0002,0.0
45,5.029925205235486e-07,-0.782407820224762,46.0,-0.7831782102584839,0.0002,0.0
46,6.318092005130893e-07,-0.7775005102157593,47.0,-0.7781782150268555,0.0002,0.0
47,7.667599675187375e-07,-0.7725932002067566,48.0,-0.773178219795227,0.0002,0.0
48,9.139790222434385e-07,-0.7673792243003845,49.0,-0.7681782245635986,0.0002,0.0
49,1.0734663646871923e-06,-0.7624719142913818,50.0,-0.7631782293319702,0.0002,0.0
50,1.2329536502875271e-06,-0.7575646042823792,51.0,-0.7581782341003418,0.0002,0.0
51,1.4169773976391298e-06,-0.7526572942733765,52.0,-0.7531782388687134,0.0002,0.0
52,1.594867057974625e-06,-0.7474433183670044,53.0,-0.748178243637085,0.0002,0.0
53,1.8279639562024386e-06,-0.7425360083580017,54.0,-0.7431782484054565,0.0002,0.0
54,2.054926653727307e-06,-0.737628698348999,55.0,-0.7381782531738281,0.0002,0.0
55,2.2573528895009076e-06,-0.7327213883399963,56.0,-0.7331782579421997,0.0002,0.0
56,2.490449560355046e-06,-0.7275074124336243,57.0,-0.7281782627105713,0.0002,0.0
57,2.729680545598967e-06,-0.7226001024246216,58.0,-0.7231782674789429,0.0002,0.0
58,2.9934481062809937e-06,-0.7176927924156189,59.0,-0.7181782126426697,0.0002,0.0
59,3.2817520150274504e-06,-0.712478756904602,60.0,-0.7131782174110413,0.0002,0.0
60,3.582324097806122e-06,-0.7075714468955994,61.0,-0.7081782221794128,0.0002,0.0
61,3.901298896380467e-06,-0.7026641964912415,62.0,-0.7031782269477844,0.0002,0.0
62,4.385894953884417e-06,-0.6974501609802246,63.0,-0.698178231716156,0.0002,0.0
63,5.048380444350187e-06,-0.6925428509712219,64.0,-0.6931782364845276,0.0002,0.0
64,5.692463673767634e-06,-0.6876355409622192,65.0,-0.6881782412528992,0.0002,0.0
65,6.348815531964647e-06,-0.6824215650558472,66.0,-0.6831782460212708,0.0002,0.0
66,6.7720702645601705e-06,-0.6775142550468445,67.0,-0.6781782507896423,0.0002,0.0
67,7.508165253966581e-06,-0.6726069450378418,68.0,-0.6731782555580139,0.0002,0.0
68,8.354674719157629e-06,-0.6673929691314697,69.0,-0.6681782603263855,0.0002,0.0
69,9.207318726112135e-06,-0.662485659122467,70.0,-0.6631782650947571,0.0002,0.0
70,1.0121303603227716e-05,-0.6575783491134644,71.0,-0.6581782698631287,0.0002,0.0
71,1.1035288480343297e-05,-0.6526710391044617,72.0,-0.6531782150268555,0.0002,0.0
72,1.217010139953345e-05,-0.6474570035934448,73.0,-0.648178219795227,0.0002,0.0
73,1.3335586118046194e-05,-0.6425497531890869,74.0,-0.6431782245635986,0.0002,0.0
74,1.4961129636503756e-05,-0.6376424431800842,75.0,-0.6381782293319702,0.0002,0.0
75,1.6709354895283468e-05,-0.6324284076690674,76.0,-0.6331782341003418,0.0002,0.0
76,1.8831762645277195e-05,-0.6275210976600647,77.0,-0.6281782388687134,0.0002,0.0
77,2.027941809501499e-05,-0.622613787651062,78.0,-0.623178243637085,0.0002,0.0
78,2.2033776986063458e-05,-0.6173998117446899,79.0,-0.6181782484054565,0.0002,0.0
79,2.4248196496046148e-05,-0.6124925017356873,80.0,-0.6131782531738281,0.0002,0.0
80,2.6603702281136066e-05,-0.6075851917266846,81.0,-0.6081782579421997,0.0002,0.0
81,2.9124828870408237e-05,-0.6026778817176819,82.0,-0.6031782627105713,0.0002,0.0
82,3.2339110475732014e-05,-0.5974639058113098,83.0,-0.5981782674789429,0.0002,0.0
83,3.42652274412103e-05,-0.5925565958023071,84.0,-0.5931782722473145,0.0002,0.0
84,3.651031511253677e-05,-0.5876492857933044,85.0,-0.5881782174110413,0.0002,0.0
85,3.963258859585039e-05,-0.5824353098869324,86.0,-0.5831782221794128,0.0002,0.0
86,4.391420952742919e-05,-0.5775279998779297,87.0,-0.5781782269477844,0.0002,0.0
87,4.7478137275902554e-05,-0.572620689868927,88.0,-0.573178231716156,0.0002,0.0
88,5.140397843206301e-05,-0.5674066543579102,89.0,-0.5681782364845276,0.0002,0.0
89,5.644009434035979e-05,-0.5624993443489075,90.0,-0.5631782412528992,0.0002,0.0
90,6.184425728861243e-05,-0.5575920939445496,91.0,-0.5581782460212708,0.0002,0.0
91,6.477637361967936e-05,-0.5523780584335327,92.0,-0.5531782507896423,0.0002,0.0
92,6.973888230277225e-05,-0.54747074842453,93.0,-0.5481782555580139,0.0002,0.0
93,7.57503294153139e-05,-0.5425634384155273,94.0,-0.5431782603263855,0.0002,0.0
94,8.279230678454041e-05,-0.5376561880111694,95.0,-0.5381782650947571,0.0002,0.0
95,8.827621059026569e-05,-0.5327488780021667,96.0,-0.5331782698631287,0.0002,0.0
96,9.246582339983433e-05,-0.5275348424911499,97.0,-0.5281782150268555,0.0002,0.0
97,9.866742038866505e-05,-0.5226275324821472,98.0,-0.523178219795227,0.0002,0.0
98,0.00010781340824905783,-0.5177202224731445,99.0,-0.5181782245635986,0.0002,0.0
99,0.00011422970419516787,-0.5125062465667725,100.0,-0.5131782293319702,0.0002,0.0
100,0.00012246170081198215,-0.5075989365577698,101.0,-0.5081782341003418,0.0002,0.0
