,current,potential,elapsed_time,applied_potential,current_range,segment
0,-1.3648437970914529e-06,-0.7962095737457275,0.8,-0.7968616485595703,2e-05,0.0
1,-1.2335734709267854e-06,-0.7962095737457275,1.6,-0.7967616319656372,2e-05,0.0
2,-1.1409481430746382e-06,-0.7962095737457275,2.4,-0.7966616749763489,2e-05,0.0
3,-1.0667251899576513e-06,-0.7959029078483582,3.2,-0.7965616583824158,2e-05,0.0
4,-1.005383978736063e-06,-0.7959029078483582,4.0,-0.7964616417884827,2e-05,0.0
5,-9.550841468808358e-07,-0.795596182346344,4.8,-0.7963616251945496,2e-05,0.0
6,-9.066245070243895e-07,-0.795596182346344,5.6,-0.7962616682052612,2e-05,0.0
7,-8.698197575540689e-07,-0.795596182346344,6.4,-0.7961616516113281,2e-05,0.0
8,-8.354686542588752e-07,-0.7952894568443298,7.2,-0.796061635017395,2e-05,0.0
9,-8.029577998058812e-07,-0.7952894568443298,8.0,-0.7959616780281067,2e-05,0.0
10,-7.73513988860941e-07,-0.7952894568443298,8.8,-0.7958616614341736,2e-05,0.0
11,-7.452969725818548e-07,-0.7952894568443298,9.6,-0.7957616448402405,2e-05,0.0
12,-7.21987305496441e-07,-0.7949827909469604,10.4,-0.7956616282463074,2e-05,0.0
13,-6.992910357439541e-07,-0.7949827909469604,11.2,-0.795561671257019,2e-05,0.0
14,-6.741411198163405e-07,-0.7949827909469604,12.0,-0.7954616546630859,2e-05,0.0
15,-6.477643523794541e-07,-0.7946760654449463,12.8,-0.7953616380691528,2e-05,0.0
16,-6.281351829784398e-07,-0.7946760654449463,13.6,-0.7952616214752197,2e-05,0.0
17,-6.042120617166802e-07,-0.7946760654449463,14.4,-0.7951616644859314,2e-05,0.0
18,-5.802889972983394e-07,-0.7943693399429321,15.2,-0.7950616478919983,2e-05,0.0
19,-5.600463737209793e-07,-0.7943693399429321,16.0,-0.7949616312980652,2e-05,0.0
20,-5.404171474765462e-07,-0.7943693399429321,16.8,-0.7948616743087769,2e-05,0.0
21,-5.244684189165127e-07,-0.7940626740455627,17.6,-0.7947616577148438,2e-05,0.0
22,-5.060660441813525e-07,-0.7940626740455627,18.4,-0.7946616411209106,2e-05,0.0
23,-4.882770667791192e-07,-0.7940626740455627,19.2,-0.7945616245269775,2e-05,0.0
24,-4.741685870612855e-07,-0.7937559485435486,20.0,-0.7944616675376892,2e-05,0.0
25,-4.600601073434518e-07,-0.7937559485435486,20.8,-0.7943616509437561,2e-05,0.0
26,-4.459515992039087e-07,-0.7937559485435486,21.6,-0.794261634349823,2e-05,0.0
27,-4.312296937314386e-07,-0.7934492230415344,22.4,-0.7941616773605347,2e-05,0.0
28,-4.171212140136049e-07,-0.7934492230415344,23.2,-0.7940616607666016,2e-05,0.0
29,-4.05466380470898e-07,-0.7934492230415344,24.0,-0.7939616441726685,2e-05,0.0
30,-4.00559059698935e-07,-0.793142557144165,24.8,-0.7938616275787354,2e-05,0.0
31,-3.9258469541891827e-07,-0.793142557144165,25.6,-0.793761670589447,2e-05,0.0
32,-3.858371542264649e-07,-0.793142557144165,26.4,-0.7936616539955139,2e-05,0.0
33,-3.7908961303401156e-07,-0.7928358316421509,27.2,-0.7935616374015808,2e-05,0.0
34,-3.6866160257886804e-07,-0.7928358316421509,28.0,-0.7934616208076477,2e-05,0.0
35,-3.5700676903616113e-07,-0.7928358316421509,28.8,-0.7933616638183594,2e-05,0.0
36,-3.465787585810176e-07,-0.7928358316421509,29.6,-0.7932616472244263,2e-05,0.0
37,-3.3799096854636446e-07,-0.7925291061401367,30.4,-0.7931616306304932,2e-05,0.0
38,-3.2633613500365755e-07,-0.7925291061401367,31.2,-0.7930616736412048,2e-05,0.0
39,-3.183617707236408e-07,-0.7922224402427673,32.0,-0.7929616570472717,2e-05,0.0
40,-3.0732033451386087e-07,-0.7922224402427673,32.8,-0.7928616404533386,2e-05,0.0
41,-2.9627889830408094e-07,-0.7922224402427673,33.6,-0.7927616238594055,2e-05,0.0
42,-2.8401066742844705e-07,-0.7922224402427673,34.4,-0.7926616668701172,2e-05,0.0
43,-2.741960543062305e-07,-0.7919157147407532,35.2,-0.7925616502761841,2e-05,0.0
44,-2.6438144118401397e-07,-0.7919157147407532,36.0,-0.792461633682251,2e-05,0.0
45,-2.576338999915606e-07,-0.791608989238739,36.8,-0.7923616766929626,2e-05,0.0
46,-2.478193152910535e-07,-0.791608989238739,37.6,-0.7922616600990295,2e-05,0.0
47,-2.3677787908127357e-07,-0.791608989238739,38.4,-0.7921616435050964,2e-05,0.0
48,-2.3003033788882021e-07,-0.7913023233413696,39.2,-0.7920616269111633,2e-05,0.0
49,-2.2512304553856666e-07,-0.7913023233413696,40.0,-0.791961669921875,2e-05,0.0
50,-2.1408160932878673e-07,-0.7913023233413696,40.8,-0.7918616533279419,2e-05,0.0
51,-2.0242677578607982e-07,-0.7913023233413696,41.6,-0.7917616367340088,2e-05,0.0
52,-1.9445241150606307e-07,-0.7909955978393555,42.4,-0.7916616201400757,2e-05,0.0
53,-1.9322558841849968e-07,-0.7909955978393555,43.2,-0.7915616631507874,2e-05,0.0
54,-1.9199875112008158e-07,-0.7906888723373413,44.0,-0.7914616465568542,2e-05,0.0
55,-1.8647804722604633e-07,-0.7906888723373413,44.8,-0.7913616299629211,2e-05,0.0
56,-1.7973050603359297e-07,-0.7906888723373413,45.6,-0.7912616729736328,2e-05,0.0
57,-1.7175614175357623e-07,-0.7903822064399719,46.4,-0.7911616563796997,2e-05,0.0
58,-1.6439518901734118e-07,-0.7903822064399719,47.2,-0.7910616397857666,2e-05,0.0
59,-1.5826105936866952e-07,-0.7903822064399719,48.0,-0.7909616231918335,2e-05,0.0
60,-1.5458057589512464e-07,-0.7903822064399719,48.8,-0.7908616662025452,2e-05,0.0
61,-1.5028669508865278e-07,-0.7900754809379578,49.6,-0.7907616496086121,2e-05,0.0
62,-1.447659769837628e-07,-0.7900754809379578,50.4,-0.790661633014679,2e-05,0.0
63,-1.343379665286193e-07,-0.7900754809379578,51.2,-0.7905616760253906,2e-05,0.0
64,-1.2452336761725746e-07,-0.7897687554359436,52.0,-0.7904616594314575,2e-05,0.0
65,-1.1348193140747753e-07,-0.7897687554359436,52.8,-0.7903616428375244,2e-05,0.0
66,-1.1286851986369584e-07,-0.7897687554359436,53.6,-0.7902616262435913,2e-05,0.0
67,-1.0612097867124248e-07,-0.7894620895385742,54.4,-0.790161669254303,2e-05,0.0
68,-9.753320284744404e-08,-0.7894620895385742,55.2,-0.7900616526603699,2e-05,0.0
69,-8.035765119984717e-08,-0.7891553640365601,56.0,-0.7899616360664368,2e-05,0.0
70,-6.624915727115877e-08,-0.7891553640365601,56.8,-0.7898616194725037,2e-05,0.0
71,-6.01150276224871e-08,-0.7891553640365601,57.6,-0.7897616624832153,2e-05,0.0
72,-5.520772816680619e-08,-0.7891553640365601,58.4,-0.7896616458892822,2e-05,0.0
73,-5.152725179868867e-08,-0.7888486385345459,59.2,-0.7895616292953491,2e-05,0.0
74,-4.3552887518671923e-08,-0.7888486385345459,60.0,-0.7894616723060608,2e-05,0.0
75,-3.98724111505544e-08,-0.7888486385345459,60.8,-0.7893616557121277,2e-05,0.0
76,-3.373828505459642e-08,-0.7885419726371765,61.6,-0.7892616391181946,2e-05,0.0
77,-1.1042015302109576e-08,-0.7885419726371765,62.4,-0.7891616225242615,2e-05,0.0
78,-1.3495665918128452e-08,-0.7885419726371765,63.2,-0.7890616655349731,2e-05,0.0
79,-1.2268841054208224e-08,-0.7882352471351624,64.0,-0.78896164894104,2e-05,0.0
80,-4.2944758860130605e-09,-0.7882352471351624,64.8,-0.7888616323471069,2e-05,0.0
81,-7.974952254130585e-09,-0.7882352471351624,65.6,-0.7887616753578186,2e-05,0.0
82,-9.201777118050813e-09,-0.7879285216331482,66.4,-0.7886616587638855,2e-05,0.0
83,-3.6810634540529463e-09,-0.7879285216331482,67.2,-0.7885616421699524,2e-05,0.0
84,4.906714146102331e-09,-0.7879285216331482,68.0,-0.7884616255760193,2e-05,0.0
85,1.4721316610177837e-08,-0.787621796131134,68.8,-0.788361668586731,2e-05,0.0
86,2.5149333282570296e-08,-0.787621796131134,69.6,-0.7882616519927979,2e-05,0.0
87,3.005663273825121e-08,-0.787621796131134,70.4,-0.7881616353988647,2e-05,0.0
88,3.312369756258704e-08,-0.787621796131134,71.2,-0.7880616784095764,2e-05,0.0
89,4.5391949754503e-08,-0.7873151302337646,72.0,-0.7879616618156433,2e-05,0.0
90,5.581996731507388e-08,-0.7873151302337646,72.8,-0.7878616452217102,2e-05,0.0
91,6.195408985831818e-08,-0.7870084047317505,73.6,-0.7877616286277771,2e-05,0.0
92,6.624798487564476e-08,-0.7870084047317505,74.4,-0.7876616716384888,2e-05,0.0
93,7.728940687456998e-08,-0.7870084047317505,75.2,-0.7875616550445557,2e-05,0.0
94,8.89442546281316e-08,-0.7867016792297363,76.0,-0.7874616384506226,2e-05,0.0
95,1.3126972930876946e-07,-0.7867016792297363,76.8,-0.7873616218566895,2e-05,0.0
96,1.2022829309898952e-07,-0.7867016792297363,77.6,-0.7872616648674011,2e-05,0.0
97,1.380172705012228e-07,-0.7867016792297363,78.4,-0.787161648273468,2e-05,0.0
98,1.36177021659023e-07,-0.7863950133323669,79.2,-0.7870616316795349,2e-05,0.0
99,1.3310996394011454e-07,-0.7863950133323669,80.0,-0.7869616746902466,2e-05,0.0
100,1.2942949467742437e-07,-0.7860882878303528,80.8,-0.7868616580963135,2e-05,0.0
101,1.3065631776498776e-07,-0.7860882878303528,81.6,-0.7867616415023804,2e-05,0.0
102,1.380172705012228e-07,-0.7860882878303528,82.4,-0.7866616249084473,2e-05,0.0
103,1.4415138593903976e-07,-0.7860882878303528,83.2,-0.7865616679191589,2e-05,0.0
104,1.4537822323745786e-07,-0.7857815623283386,84.0,-0.7864616513252258,2e-05,0.0
105,1.4537822323745786e-07,-0.7857815623283386,84.8,-0.7863616347312927,2e-05,0.0
106,1.508989271314931e-07,-0.7857815623283386,85.6,-0.7862616777420044,2e-05,0.0
107,1.5764646832394646e-07,-0.7854748964309692,86.4,-0.7861616611480713,2e-05,0.0
108,1.6500742106018151e-07,-0.7854748964309692,87.2,-0.7860616445541382,2e-05,0.0
109,1.668476556915266e-07,-0.7851681709289551,88.0,-0.7859616279602051,2e-05,0.0
110,1.7482201997154334e-07,-0.7851681709289551,88.8,-0.7858616709709167,2e-05,0.0
111,1.815695611639967e-07,-0.7851681709289551,89.6,-0.7857616543769836,2e-05,0.0
112,1.9322440891755832e-07,-0.7848614454269409,90.4,-0.7856616377830505,2e-05,0.0
113,2.7480828634907084e-07,-0.7848614454269409,91.2,-0.7855616211891174,2e-05,0.0
114,2.656070989814907e-07,-0.7848614454269409,92.0,-0.7854616641998291,2e-05,0.0
115,2.662205247361271e-07,-0.7848614454269409,92.8,-0.785361647605896,2e-05,0.0
116,2.6499370164856373e-07,-0.7845547795295715,93.6,-0.7852616310119629,2e-05,0.0
117,2.625400270517275e-07,-0.7845547795295715,94.4,-0.7851616740226746,2e-05,0.0
118,2.643802758939273e-07,-0.7842480540275574,95.2,-0.7850616574287415,2e-05,0.0
119,2.674473478236905e-07,-0.7842480540275574,96.0,-0.7849616408348083,2e-05,0.0
120,2.711278170863807e-07,-0.7842480540275574,96.8,-0.7848616242408752,2e-05,0.0
121,2.7787535827883403e-07,-0.7842480540275574,97.6,-0.7847616672515869,2e-05,0.0
122,2.78488755611761e-07,-0.7839413285255432,98.4,-0.7846616506576538,2e-05,0.0
123,2.8584972255885077e-07,-0.7839413285255432,99.2,-0.7845616340637207,2e-05,0.0
124,2.8768997140105057e-07,-0.7836346626281738,100.0,-0.7844616770744324,2e-05,0.0
125,2.9075701490910433e-07,-0.7836346626281738,100.8,-0.7843616604804993,2e-05,0.0
126,2.956643356810673e-07,-0.7836346626281738,101.6,-0.7842616438865662,2e-05,0.0
127,2.975045561015577e-07,-0.7836346626281738,102.4,-0.7841616272926331,2e-05,0.0
128,3.0302527420644765e-07,-0.7833279371261597,103.2,-0.7840616703033447,2e-05,0.0
129,3.085459923113376e-07,-0.7833279371261597,104.0,-0.7839616537094116,2e-05,0.0
130,3.103862411535374e-07,-0.7833279371261597,104.8,-0.7838616371154785,2e-05,0.0
131,3.202008258540445e-07,-0.7830212116241455,105.6,-0.7837616205215454,2e-05,0.0
132,3.257215439589345e-07,-0.7830212116241455,106.4,-0.7836616635322571,2e-05,0.0
133,3.4719099062385794e-07,-0.7827145457267761,107.2,-0.783561646938324,2e-05,0.0
134,3.4841781371142133e-07,-0.7827145457267761,108.0,-0.7834616303443909,2e-05,0.0
135,3.545519291492383e-07,-0.7827145457267761,108.8,-0.7833616733551025,2e-05,0.0
136,3.6007264725412824e-07,-0.7827145457267761,109.6,-0.7832616567611694,2e-05,0.0
137,3.67433614201218e-07,-0.782407820224762,110.4,-0.7831616401672363,2e-05,0.0
138,3.7418115539367136e-07,-0.782407820224762,111.2,-0.7830616235733032,2e-05,0.0
139,3.803152708314883e-07,-0.782407820224762,112.0,-0.7829616665840149,2e-05,0.0
140,3.9074328128663183e-07,-0.7821010947227478,112.8,-0.7828616499900818,2e-05,0.0
141,3.944237789710314e-07,-0.7821010947227478,113.6,-0.7827616333961487,2e-05,0.0
142,4.0055789440884837e-07,-0.7817944288253784,114.4,-0.7826616764068604,2e-05,0.0
143,4.085322586888651e-07,-0.7817944288253784,115.2,-0.7825616598129272,2e-05,0.0
144,4.1343955103911867e-07,-0.7817944288253784,116.0,-0.7824616432189941,2e-05,0.0
145,4.214139153191354e-07,-0.7817944288253784,116.8,-0.782361626625061,2e-05,0.0
146,4.263212360910984e-07,-0.7814877033233643,117.6,-0.7822616696357727,2e-05,0.0
147,4.3122852844135195e-07,-0.7814877033233643,118.4,-0.7821616530418396,2e-05,0.0
148,4.3184192577427893e-07,-0.7814877033233643,119.2,-0.7820616364479065,2e-05,0.0
149,4.3429560037111514e-07,-0.7811809778213501,120.0,-0.7819616198539734,2e-05,0.0
150,5.042246584707755e-07,-0.7811809778213501,120.8,-0.7818616628646851,2e-05,0.0
151,4.950234711031953e-07,-0.7811809778213501,121.6,-0.781761646270752,2e-05,0.0
152,4.907295760858688e-07,-0.7808743119239807,122.4,-0.7816616296768188,2e-05,0.0
153,4.876624757343961e-07,-0.7808743119239807,123.2,-0.7815616726875305,2e-05,0.0
154,4.901161219095229e-07,-0.7808743119239807,124.0,-0.7814616560935974,2e-05,0.0
155,4.962502657690493e-07,-0.7808743119239807,124.8,-0.7813616394996643,2e-05,0.0
156,5.066783046459022e-07,-0.7805675864219666,125.6,-0.7812616229057312,2e-05,0.0
157,5.128123916620098e-07,-0.7805675864219666,126.4,-0.7811616659164429,2e-05,0.0
158,5.189465355215361e-07,-0.7802608609199524,127.2,-0.7810616493225098,2e-05,0.0
159,5.250806793810625e-07,-0.7802608609199524,128.0,-0.7809616327285767,2e-05,0.0
160,5.30601369064243e-07,-0.7802608609199524,128.8,-0.7808616757392883,2e-05,0.0
161,5.348952640815696e-07,-0.779954195022583,129.6,-0.7807616591453552,2e-05,0.0
162,5.434830541162228e-07,-0.779954195022583,130.4,-0.7806616425514221,2e-05,0.0
163,5.496171979757491e-07,-0.779954195022583,131.2,-0.780561625957489,2e-05,0.0
164,5.569781365011295e-07,-0.7796474695205688,132.0,-0.7804616689682007,2e-05,0.0
165,5.631122803606559e-07,-0.7796474695205688,132.8,-0.7803616523742676,2e-05,0.0
166,5.717000135518902e-07,-0.7796474695205688,133.6,-0.7802616357803345,2e-05,0.0
167,5.802878035865433e-07,-0.7796474695205688,134.4,-0.7801616191864014,2e-05,0.0
168,5.851950959367969e-07,-0.7793407440185547,135.2,-0.780061662197113,2e-05,0.0
169,5.870353447789967e-07,-0.7793407440185547,136.0,-0.7799616456031799,2e-05,0.0
170,5.94396283304377e-07,-0.7790340185165405,136.8,-0.7798616290092468,2e-05,0.0
171,5.956231348136498e-07,-0.7790340185165405,137.6,-0.7797616720199585,2e-05,0.0
172,5.999170298309764e-07,-0.7790340185165405,138.4,-0.7796616554260254,2e-05,0.0
173,6.048243221812299e-07,-0.7790340185165405,139.2,-0.7795616388320923,2e-05,0.0
174,6.170925530568638e-07,-0.7787273526191711,140.0,-0.7794616222381592,2e-05,0.0
175,6.26293740424444e-07,-0.7787273526191711,140.8,-0.7793616652488708,2e-05,0.0
176,6.324278842839703e-07,-0.778420627117157,141.6,-0.7792616486549377,2e-05,0.0
177,6.342681331261701e-07,-0.778420627117157,142.4,-0.7791616320610046,2e-05,0.0
178,6.410156743186235e-07,-0.778420627117157,143.2,-0.7790616750717163,2e-05,0.0
179,6.446961151596042e-07,-0.778420627117157,144.0,-0.7789616584777832,2e-05,0.0
180,6.551241540364572e-07,-0.7781139016151428,144.8,-0.7788616418838501,2e-05,0.0
181,6.618716952289105e-07,-0.7781139016151428,145.6,-0.778761625289917,2e-05,0.0
182,6.673923849120911e-07,-0.7778072357177734,146.4,-0.7786616683006287,2e-05,0.0
183,6.747533802808903e-07,-0.7778072357177734,147.2,-0.7785616517066956,2e-05,0.0
184,6.802740699640708e-07,-0.7778072357177734,148.0,-0.7784616351127625,2e-05,0.0
185,6.894752573316509e-07,-0.7778072357177734,148.8,-0.7783616781234741,2e-05,0.0
186,6.974496500333771e-07,-0.7775005102157593,149.6,-0.778261661529541,2e-05,0.0
187,7.048105885587574e-07,-0.7775005102157593,150.4,-0.7781616449356079,2e-05,0.0
188,7.109447324182838e-07,-0.7771937847137451,151.2,-0.7780616283416748,2e-05,0.0
189,7.158520247685374e-07,-0.7771937847137451,152.0,-0.7779616713523865,2e-05,0.0
190,7.962090649016318e-07,-0.7771937847137451,152.8,-0.7778616547584534,2e-05,0.0
191,7.802603363415983e-07,-0.7768871188163757,153.6,-0.7777616381645203,2e-05,0.0
192,7.808737336745253e-07,-0.7768871188163757,154.4,-0.7776616215705872,2e-05,0.0
193,7.692189001318184e-07,-0.7768871188163757,155.2,-0.7775616645812988,2e-05,0.0
194,7.73512795149145e-07,-0.7768871188163757,156.0,-0.7774616479873657,2e-05,0.0
195,7.759664413242717e-07,-0.7765803933143616,156.8,-0.7773616313934326,2e-05,0.0
196,7.790335416757443e-07,-0.7765803933143616,157.6,-0.7772616744041443,2e-05,0.0
197,7.802603363415983e-07,-0.7762736678123474,158.4,-0.7771616578102112,2e-05,0.0
198,7.870078775340517e-07,-0.7762736678123474,159.2,-0.7770616412162781,2e-05,0.0
199,8.011163572518853e-07,-0.7762736678123474,160.0,-0.776961624622345,2e-05,0.0
200,8.047968549362849e-07,-0.7762736678123474,160.8,-0.7768616676330566,2e-05,0.0
201,8.090907499536115e-07,-0.775967001914978,161.6,-0.7767616510391235,2e-05,0.0
202,8.164516884789919e-07,-0.775967001914978,162.4,-0.7766616344451904,2e-05,0.0
203,8.225858323385182e-07,-0.775967001914978,163.2,-0.7765616774559021,2e-05,0.0
204,8.281065220216988e-07,-0.7756602764129639,164.0,-0.776461660861969,2e-05,0.0
205,8.342406658812251e-07,-0.7756602764129639,164.8,-0.7763616442680359,2e-05,0.0
206,8.434418532488053e-07,-0.7756602764129639,165.6,-0.7762616276741028,2e-05,0.0
207,8.550966867915122e-07,-0.7753535509109497,166.4,-0.7761616706848145,2e-05,0.0
208,8.655247256683651e-07,-0.7753535509109497,167.2,-0.7760616540908813,2e-05,0.0
209,8.839271004035254e-07,-0.7753535509109497,168.0,-0.7759616374969482,2e-05,0.0
210,8.88220995420852e-07,-0.7750468850135803,168.8,-0.7758616209030151,2e-05,0.0
211,8.937416851040325e-07,-0.7750468850135803,169.6,-0.7757616639137268,2e-05,0.0
212,8.99262374787213e-07,-0.7750468850135803,170.4,-0.7756616473197937,2e-05,0.0
213,9.035562698045396e-07,-0.7747401595115662,171.2,-0.7755616307258606,2e-05,0.0
214,9.109172651733388e-07,-0.7747401595115662,172.0,-0.7754616737365723,2e-05,0.0
215,9.188916010316461e-07,-0.774433434009552,172.8,-0.7753616571426392,2e-05,0.0
216,9.72871930571273e-07,-0.774433434009552,173.6,-0.775261640548706,2e-05,0.0
217,9.967950518330326e-07,-0.774433434009552,174.4,-0.775161623954773,2e-05,0.0
218,9.863670129561797e-07,-0.7741267681121826,175.2,-0.7750616669654846,2e-05,0.0
219,1.0121303830601391e-06,-0.7741267681121826,176.0,-0.7749616503715515,2e-05,0.0
220,1.003542593025486e-06,-0.7741267681121826,176.8,-0.7748616337776184,2e-05,0.0
221,9.980218464988866e-07,-0.7741267681121826,177.6,-0.7747616767883301,2e-05,0.0
222,9.937280083249789e-07,-0.7738200426101685,178.4,-0.774661660194397,2e-05,0.0
223,9.974083923225407e-07,-0.7738200426101685,179.2,-0.7745616436004639,2e-05,0.0
224,1.004155933514994e-06,-0.7738200426101685,180.0,-0.7744616270065308,2e-05,0.0
225,1.0115169288837933e-06,-0.7735133171081543,180.8,-0.7743616700172424,2e-05,0.0
226,1.014583972391847e-06,-0.7735133171081543,181.6,-0.7742616534233093,2e-05,0.0
227,1.0182644700762467e-06,-0.7732066512107849,182.4,-0.7741616368293762,2e-05,0.0
228,1.0231717624265002e-06,-0.7732066512107849,183.2,-0.7740616202354431,2e-05,0.0
229,1.0397338883194607e-06,-0.7732066512107849,184.0,-0.7739616632461548,2e-05,0.0
230,1.0520021760385134e-06,-0.7732066512107849,184.8,-0.7738616466522217,2e-05,0.0
231,1.139720211540407e-06,-0.7728999257087708,185.6,-0.7737616300582886,2e-05,0.0
232,1.129292172663554e-06,-0.7728999257087708,186.4,-0.7736616730690002,2e-05,0.0
233,1.1176373391208472e-06,-0.7728999257087708,187.2,-0.7735616564750671,2e-05,0.0
234,1.1133433872601017e-06,-0.7725932002067566,188.0,-0.773461639881134,2e-05,0.0
235,1.1225446314711007e-06,-0.7725932002067566,188.8,-0.7733616232872009,2e-05,0.0
236,1.1286787184872082e-06,-0.7725932002067566,189.6,-0.7732616662979126,2e-05,0.0
237,1.131745761995262e-06,-0.7725932002067566,190.4,-0.7731616497039795,2e-05,0.0
238,1.1335860108374618e-06,-0.7722865343093872,191.2,-0.7730616331100464,2e-05,0.0
239,1.2716038781945826e-06,-0.7722865343093872,192.0,-0.7729616761207581,2e-05,0.0
240,1.2298918363740086e-06,-0.771979808807373,192.8,-0.772861659526825,2e-05,0.0
