,current,potential,elapsed_time,applied_potential,current_range,segment
0,-3.225938053219579e-05,-1.0194917917251587,1.0,-1.0201396942138672,0.0002,0.0
1,-2.418073381704744e-05,-1.0145845413208008,2.0,-1.0151396989822388,0.0002,0.0
2,-2.1107536667841487e-05,-1.0093705654144287,3.0,-1.0101397037506104,0.0002,0.0
3,-1.9064871594309807e-05,-1.0044631958007812,4.0,-1.005139708518982,0.0002,0.0
4,-1.7568145267432556e-05,-0.9995558857917786,5.0,-1.0001397132873535,0.0002,0.0
5,-1.6316782421199605e-05,-0.9943419098854065,6.0,-0.9951397180557251,0.0002,0.0
6,-1.521264039183734e-05,-0.9894345998764038,7.0,-0.9901397228240967,0.0002,0.0
7,-1.4335460036818404e-05,-0.9845272898674011,8.0,-0.9851396679878235,0.0002,0.0
8,-1.355642598355189e-05,-0.979313313961029,9.0,-0.9801396727561951,0.0002,0.0
9,-1.2844867342209909e-05,-0.9744060039520264,10.0,-0.9751396775245667,0.0002,0.0
10,-1.2243723176652566e-05,-0.9694986939430237,11.0,-0.9701396822929382,0.0002,0.0
11,-1.172232259705197e-05,-0.964591383934021,12.0,-0.9651396870613098,0.0002,0.0
12,-1.1231591997784562e-05,-0.9593773484230042,13.0,-0.9601396918296814,0.0002,0.0
13,-1.0802203178172931e-05,-0.9544700980186462,14.0,-0.955139696598053,0.0002,0.0
14,-1.0428021596453618e-05,-0.9495627880096436,15.0,-0.9501397013664246,0.0002,0.0
15,-1.0017034583142959e-05,-0.9443487524986267,16.0,-0.9451397061347961,0.0002,0.0
16,-9.65512117545586e-06,-0.939441442489624,17.0,-0.9401397109031677,0.0002,0.0
17,-9.372951353725512e-06,-0.9345341920852661,18.0,-0.9351397156715393,0.0002,0.0
18,-9.053977009898517e-06,-0.9293201565742493,19.0,-0.9301397204399109,0.0002,0.0
19,-8.71659995027585e-06,-0.9244128465652466,20.0,-0.9251397252082825,0.0002,0.0
20,-8.465101018373389e-06,-0.9195055365562439,21.0,-0.9201396703720093,0.0002,0.0
21,-8.250406608567573e-06,-0.9145982265472412,22.0,-0.9151396751403809,0.0002,0.0
22,-8.035712198761757e-06,-0.9093842506408691,23.0,-0.9101396799087524,0.0002,0.0
23,-7.802615073160268e-06,-0.9044769406318665,24.0,-0.905139684677124,0.0002,0.0
24,-7.600188837386668e-06,-0.8992629051208496,25.0,-0.9001396894454956,0.0002,0.0
25,-7.385494427580852e-06,-0.8943556547164917,26.0,-0.8951396942138672,0.0002,0.0
26,-7.158531843742821e-06,-0.889448344707489,27.0,-0.8901396989822388,0.0002,0.0
27,-6.974507869017543e-06,-0.8845410346984863,28.0,-0.8851397037506104,0.0002,0.0
28,-6.765947546227835e-06,-0.8793269991874695,29.0,-0.8801397085189819,0.0002,0.0
29,-6.563521765201585e-06,-0.8744197487831116,30.0,-0.8751397132873535,0.0002,0.0
30,-6.354961442411877e-06,-0.8695124387741089,31.0,-0.8701397180557251,0.0002,0.0
31,-6.127998403826496e-06,-0.8646051287651062,32.0,-0.8651397228240967,0.0002,0.0
32,-5.8580967561283614e-06,-0.8593910932540894,33.0,-0.8601397275924683,0.0002,0.0
33,-5.575926934398012e-06,-0.8544837832450867,34.0,-0.8551396727561951,0.0002,0.0
34,-5.306025741447229e-06,-0.8495765328407288,35.0,-0.8501396775245667,0.0002,0.0
35,-5.02385591971688e-06,-0.8446692228317261,36.0,-0.8451396822929382,0.0002,0.0
36,-4.735551556223072e-06,-0.8394551873207092,37.0,-0.8401396870613098,0.0002,0.0
37,-4.428845386428293e-06,-0.8345478773117065,38.0,-0.8351396918296814,0.0002,0.0
38,-4.091468326805625e-06,-0.8296405673027039,39.0,-0.830139696598053,0.0002,0.0
39,-3.72342083210242e-06,-0.8244265913963318,40.0,-0.8251397013664246,0.0002,0.0
40,-3.373775598447537e-06,-0.8195192813873291,41.0,-0.8201397061347961,0.0002,0.0
41,-2.999593789354549e-06,-0.8146119713783264,42.0,-0.8151397109031677,0.0002,0.0
42,-2.5702049697429175e-06,-0.8093979954719543,43.0,-0.8101397156715393,0.0002,0.0
43,-2.1040114006609656e-06,-0.8044906854629517,44.0,-0.8051397204399109,0.0002,0.0
44,-1.5826105936866952e-06,-0.799583375453949,45.0,-0.8001397252082825,0.0002,0.0
45,-1.0244050372421043e-06,-0.7943693399429321,46.0,-0.7951396703720093,0.0002,0.0
46,-4.4779713448406255e-07,-0.7894620895385742,47.0,-0.7901396751403809,0.0002,0.0
47,1.472131714308489e-07,-0.7845547795295715,48.0,-0.7851396799087524,0.0002,0.0
48,7.851623422538978e-07,-0.7793407440185547,49.0,-0.780139684677124,0.0002,0.0
49,1.5580623085043044e-06,-0.774433434009552,50.0,-0.7751396894454956,0.0002,0.0
50,2.3002917259873357e-06,-0.7695261240005493,51.0,-0.7701396942138672,0.0002,0.0
51,1.1532099506439408e-06,-0.7646188735961914,52.0,-0.7651396989822388,0.0002,0.0
52,-6.140000063936668e-09,-0.7594048380851746,53.0,-0.7601397037506104,0.0002,0.0
53,-6.140000063936668e-09,-0.7544975280761719,54.0,-0.7551397085189819,0.0002,0.0
54,1.4108433106230223e-06,-0.7495902180671692,55.0,-0.7501397132873535,0.0002,0.0
55,7.164654107327806e-06,-0.7443762421607971,56.0,-0.7451397180557251,0.0002,0.0
56,7.624713816767326e-06,-0.7394689321517944,57.0,-0.7401397228240967,0.0002,0.0
57,8.416016498813406e-06,-0.7345616221427917,58.0,-0.7351397275924683,0.0002,0.0
58,9.556963959767018e-06,-0.7293476462364197,59.0,-0.7301396727561951,0.0002,0.0
59,1.0906471288762987e-05,-0.724440336227417,60.0,-0.7251396775245667,0.0002,0.0
60,1.22498449854902e-05,-0.7195330262184143,61.0,-0.7201396822929382,0.0002,0.0
61,1.3789511285722256e-05,-0.7146257162094116,62.0,-0.7151396870613098,0.0002,0.0
62,1.5310773960663937e-05,-0.7094116806983948,63.0,-0.7101396918296814,0.0002,0.0
63,1.691178113105707e-05,-0.7045044302940369,64.0,-0.705139696598053,0.0002,0.0
64,1.876428723335266e-05,-0.6995971202850342,65.0,-0.7001397013664246,0.0002,0.0
65,2.0923500414937735e-05,-0.6943830847740173,66.0,-0.6951397061347961,0.0002,0.0
66,2.307657996425405e-05,-0.6894757747650146,67.0,-0.6901397109031677,0.0002,0.0
67,2.5505692974547856e-05,-0.6845685243606567,68.0,-0.6851397156715393,0.0002,0.0
68,2.832125755958259e-05,-0.6793544888496399,69.0,-0.6801397204399109,0.0002,0.0
69,3.1032541301101446e-05,-0.6744471788406372,70.0,-0.6751397252082825,0.0002,0.0
70,3.376222957740538e-05,-0.6695398688316345,71.0,-0.670139729976654,0.0002,0.0
71,3.7093057471793145e-05,-0.6643258929252625,72.0,-0.6651396751403809,0.0002,0.0
72,4.10925094911363e-05,-0.6594185829162598,73.0,-0.6601396799087524,0.0002,0.0
73,4.498154521570541e-05,-0.6545112729072571,74.0,-0.655139684677124,0.0002,0.0
74,4.835531581193209e-05,-0.6492972373962402,75.0,-0.6501396894454956,0.0002,0.0
75,5.520713602891192e-05,-0.6443899869918823,76.0,-0.6451396942138672,0.0002,0.0
76,6.017577834427357e-05,-0.6394826769828796,77.0,-0.6401396989822388,0.0002,0.0
77,6.43224484520033e-05,-0.634575366973877,78.0,-0.6351397037506104,0.0002,0.0
78,6.801519339205697e-05,-0.6293613314628601,79.0,-0.6301397085189819,0.0002,0.0
79,7.212505443021655e-05,-0.6244540810585022,80.0,-0.6251397132873535,0.0002,0.0
80,7.572578761028126e-05,-0.6195467710494995,81.0,-0.6201397180557251,0.0002,0.0
81,7.997060311026871e-05,-0.6143327355384827,82.0,-0.6151397228240967,0.0002,0.0
82,8.595751569373533e-05,-0.60942542552948,83.0,-0.6101397275924683,0.0002,0.0
83,9.068079089047387e-05,-0.6045181155204773,84.0,-0.6051397323608398,0.0002,0.0
84,8.892643381841481e-05,-0.5993041396141052,85.0,-0.6001396775245667,0.0002,0.0
85,-6.140000063936668e-09,-0.5943968296051025,86.0,-0.5951396822929382,0.0002,0.0
86,-6.140000063936668e-09,-0.5891827940940857,87.0,-0.5901396870613098,0.0002,0.0
87,-6.140000063936668e-09,-0.5842755436897278,88.0,-0.5851396918296814,0.0002,0.0
88,-6.140000063936668e-09,-0.5793682336807251,89.0,-0.580139696598053,0.0002,0.0
89,-6.140000063936668e-09,-0.5744609236717224,90.0,-0.5751397013664246,0.0002,0.0
90,-6.140000063936668e-09,-0.5692468881607056,91.0,-0.5701397061347961,0.0002,0.0
91,-6.140000063936668e-09,-0.5643396377563477,92.0,-0.5651397109031677,0.0002,0.0
92,-6.140000063936668e-09,-0.5591256022453308,93.0,-0.5601397156715393,0.0002,0.0
93,-6.140000063936668e-09,-0.5542182922363281,94.0,-0.5551397204399109,0.0002,0.0
94,-6.140000063936668e-09,-0.5493109822273254,95.0,-0.5501397252082825,0.0002,0.0
95,-6.140000063936668e-09,-0.5444036722183228,96.0,-0.545139729976654,0.0002,0.0
96,-6.140000063936668e-09,-0.5394964218139648,97.0,-0.5401396751403809,0.0002,0.0
97,-6.140000063936668e-09,-0.534282386302948,98.0,-0.5351396799087524,0.0002,0.0
98,-6.140000063936668e-09,-0.5293750762939453,99.0,-0.530139684677124,0.0002,0.0
99,-6.140000063936668e-09,-0.5244677662849426,100.0,-0.5251396894454956,0.0002,0.0
100,-5.8731973277825755e-12,-0.5192537903785706,101.0,-0.5201396942138672,0.0002,0.0
