,current,potential,elapsed_time,applied_potential,current_range,segment
0,-4.1282731899627834e-07,-0.7670724987983704,0.8,-0.7674177885055542,2e-05,0.0
1,-3.7970303878864797e-07,-0.7667657732963562,1.6,-0.7673177719116211,2e-05,0.0
2,-3.613006640534877e-07,-0.7667657732963562,2.4,-0.7672178149223328,2e-05,0.0
3,-3.48418979001508e-07,-0.7667657732963562,3.2,-0.7671177983283997,2e-05,0.0
4,-3.373775712134375e-07,-0.7664591073989868,4.0,-0.7670177817344666,2e-05,0.0
5,-3.2940320693342073e-07,-0.7664591073989868,4.8,-0.7669177651405334,2e-05,0.0
6,-3.21428842653404e-07,-0.7664591073989868,5.6,-0.7668178081512451,2e-05,0.0
7,-3.1468130146095064e-07,-0.7661523818969727,6.4,-0.766717791557312,2e-05,0.0
8,-3.0732033451386087e-07,-0.7661523818969727,7.2,-0.7666177749633789,2e-05,0.0
9,-3.005727933214075e-07,-0.7661523818969727,8.0,-0.7665178179740906,2e-05,0.0
10,-2.9566550097115396e-07,-0.7658456563949585,8.8,-0.7664178013801575,2e-05,0.0
11,-2.907582086209004e-07,-0.7658456563949585,9.6,-0.7663177847862244,2e-05,0.0
12,-2.8646431360357383e-07,-0.7658456563949585,10.4,-0.7662177681922913,2e-05,0.0
13,-2.8033016974404745e-07,-0.7655389904975891,11.2,-0.7661178112030029,2e-05,0.0
14,-2.729692312186671e-07,-0.7655389904975891,12.0,-0.7660177946090698,2e-05,0.0
15,-2.63768043851087e-07,-0.765232264995575,12.8,-0.7659177780151367,2e-05,0.0
16,-2.5272660764130706e-07,-0.765232264995575,13.6,-0.7658177614212036,2e-05,0.0
17,-2.459790664488537e-07,-0.765232264995575,14.4,-0.7657178044319153,2e-05,0.0
18,-2.416851714315271e-07,-0.765232264995575,15.2,-0.7656177878379822,2e-05,0.0
19,-2.3800470216883696e-07,-0.7649255394935608,16.0,-0.7655177712440491,2e-05,0.0
20,-2.3493764444992848e-07,-0.7649255394935608,16.8,-0.7654178142547607,2e-05,0.0
21,-2.2941692634503852e-07,-0.7646188735961914,17.6,-0.7653177976608276,2e-05,0.0
22,-2.2021573897745839e-07,-0.7646188735961914,18.4,-0.7652177810668945,2e-05,0.0
23,-2.1346819778500503e-07,-0.7646188735961914,19.2,-0.7651177644729614,2e-05,0.0
24,-2.1714868125854991e-07,-0.7646188735961914,20.0,-0.7650178074836731,2e-05,0.0
25,-2.1346819778500503e-07,-0.7643121480941772,20.8,-0.76491779088974,2e-05,0.0
26,-2.0672065659255168e-07,-0.7643121480941772,21.6,-0.7648177742958069,2e-05,0.0
27,-2.030401873298615e-07,-0.7643121480941772,22.4,-0.7647178173065186,2e-05,0.0
28,-1.9997311540009832e-07,-0.7640054225921631,23.2,-0.7646178007125854,2e-05,0.0
29,-1.9690605768118985e-07,-0.7636987566947937,24.0,-0.7645177841186523,2e-05,0.0
30,-1.8709145876982802e-07,-0.7640054225921631,24.8,-0.7644177675247192,2e-05,0.0
31,-1.8341097529628314e-07,-0.7636987566947937,25.6,-0.7643178105354309,2e-05,0.0
32,-1.8341097529628314e-07,-0.7636987566947937,26.4,-0.7642177939414978,2e-05,0.0
33,-1.7911709448981128e-07,-0.7636987566947937,27.2,-0.7641177773475647,2e-05,0.0
34,-1.7298296484113962e-07,-0.7633920311927795,28.0,-0.7640177607536316,2e-05,0.0
35,-1.7114273020979454e-07,-0.7633920311927795,28.8,-0.7639178037643433,2e-05,0.0
36,-1.7114273020979454e-07,-0.7633920311927795,29.6,-0.7638177871704102,2e-05,0.0
37,-1.6623542364868626e-07,-0.7630853056907654,30.4,-0.763717770576477,2e-05,0.0
38,-1.5826105936866952e-07,-0.7630853056907654,31.2,-0.7636178135871887,2e-05,0.0
39,-1.5642082473732444e-07,-0.7630853056907654,32.0,-0.7635177969932556,2e-05,0.0
40,-1.5642082473732444e-07,-0.762778639793396,32.8,-0.7634177803993225,2e-05,0.0
41,-1.5458057589512464e-07,-0.762778639793396,33.6,-0.7633177638053894,2e-05,0.0
42,-1.484464604573077e-07,-0.762778639793396,34.4,-0.7632178068161011,2e-05,0.0
43,-1.447659769837628e-07,-0.762778639793396,35.2,-0.763117790222168,2e-05,0.0
44,-1.4415256543998112e-07,-0.7624719142913818,36.0,-0.7630177736282349,2e-05,0.0
45,-1.4415256543998112e-07,-0.7624719142913818,36.8,-0.7629178166389465,2e-05,0.0
46,-1.4231233080863603e-07,-0.7624719142913818,37.6,-0.7628178000450134,2e-05,0.0
47,-1.4047209617729095e-07,-0.7621651887893677,38.4,-0.7627177834510803,2e-05,0.0
48,-1.3740502424752776e-07,-0.7621651887893677,39.2,-0.7626177668571472,2e-05,0.0
49,-1.324977318972742e-07,-0.7621651887893677,40.0,-0.7625178098678589,2e-05,0.0
50,-1.2881724842372932e-07,-0.7618585228919983,40.8,-0.7624177932739258,2e-05,0.0
51,-1.2206970723127597e-07,-0.7618585228919983,41.6,-0.7623177766799927,2e-05,0.0
52,-1.2084288414371258e-07,-0.7615517973899841,42.4,-0.7622177600860596,2e-05,0.0
53,-1.1532217314424997e-07,-0.7615517973899841,43.2,-0.7621178030967712,2e-05,0.0
54,-1.1225510831991414e-07,-0.7615517973899841,44.0,-0.7620177865028381,2e-05,0.0
55,-1.0734780886423323e-07,-0.76124507188797,44.8,-0.761917769908905,2e-05,0.0
56,-1.036673324961157e-07,-0.76124507188797,45.6,-0.7618178129196167,2e-05,0.0
57,-1.0182709075934326e-07,-0.76124507188797,46.4,-0.7617177963256836,2e-05,0.0
58,-9.876002593500743e-08,-0.7609383463859558,47.2,-0.7616177797317505,2e-05,0.0
59,-9.753320284744404e-08,-0.7609383463859558,48.0,-0.7615177631378174,2e-05,0.0
60,-9.630637975988066e-08,-0.7609383463859558,48.8,-0.761417806148529,2e-05,0.0
61,-9.262590339176313e-08,-0.7606316804885864,49.6,-0.761317789554596,2e-05,0.0
62,-9.139907319877238e-08,-0.7606316804885864,50.4,-0.7612177729606628,2e-05,0.0
63,-8.649177374309147e-08,-0.7606316804885864,51.2,-0.7611178159713745,2e-05,0.0
64,-8.097106274362886e-08,-0.7603249549865723,52.0,-0.7610177993774414,2e-05,0.0
65,-7.729058637551134e-08,-0.7603249549865723,52.8,-0.7609177827835083,2e-05,0.0
66,-7.54503446387389e-08,-0.7603249549865723,53.6,-0.7608177661895752,2e-05,0.0
67,-7.176986827062137e-08,-0.7600182294845581,54.4,-0.7607178092002869,2e-05,0.0
68,-6.93162220954946e-08,-0.7600182294845581,55.2,-0.7606177926063538,2e-05,0.0
69,-6.440891553438632e-08,-0.7600182294845581,56.0,-0.7605177760124207,2e-05,0.0
70,-6.318209244682294e-08,-0.7600182294845581,56.8,-0.7604177594184875,2e-05,0.0
71,-6.440891553438632e-08,-0.7597115635871887,57.6,-0.7603178024291992,2e-05,0.0
72,-6.134185781547785e-08,-0.7597115635871887,58.4,-0.7602177858352661,2e-05,0.0
73,-6.01150276224871e-08,-0.7597115635871887,59.2,-0.760117769241333,2e-05,0.0
74,-5.643455480708326e-08,-0.7594048380851746,60.0,-0.7600178122520447,2e-05,0.0
75,-5.214066689518404e-08,-0.7594048380851746,60.8,-0.7599177956581116,2e-05,0.0
76,-4.907360207084821e-08,-0.7590981125831604,61.6,-0.7598177790641785,2e-05,0.0
77,-4.784677543057114e-08,-0.7590981125831604,62.4,-0.7597177624702454,2e-05,0.0
78,-4.2326060878394856e-08,-0.7590981125831604,63.2,-0.759617805480957,2e-05,0.0
79,-3.8032172966495637e-08,-0.7590981125831604,64.0,-0.7595177888870239,2e-05,0.0
80,-3.435169659837811e-08,-0.758791446685791,64.8,-0.7594177722930908,2e-05,0.0
81,-3.005780868647889e-08,-0.758791446685791,65.6,-0.7593178153038025,2e-05,0.0
82,-2.3310269270382378e-08,-0.7584847211837769,66.4,-0.7592177987098694,2e-05,0.0
83,-2.085661776618508e-08,-0.7584847211837769,67.2,-0.7591177821159363,2e-05,0.0
84,-1.5335904990365634e-08,-0.7584847211837769,68.0,-0.7590177655220032,2e-05,0.0
85,-1.2882253486168338e-08,-0.7584847211837769,68.8,-0.7589178085327148,2e-05,0.0
86,-1.0428602870149462e-08,-0.7581779956817627,69.6,-0.7588177919387817,2e-05,0.0
87,-1.0428602870149462e-08,-0.7581779956817627,70.4,-0.7587177753448486,2e-05,0.0
88,-6.134714070071823e-09,-0.7581779956817627,71.2,-0.7586178183555603,2e-05,0.0
89,-4.2944758860130605e-09,-0.7578713297843933,72.0,-0.7585178017616272,2e-05,0.0
90,-6.140000174958971e-10,-0.7578713297843933,72.8,-0.7584177851676941,2e-05,0.0
91,1.2262380000294115e-09,-0.7578713297843933,73.6,-0.758317768573761,2e-05,0.0
92,6.133539454111769e-09,-0.7575646042823792,74.4,-0.7582178115844727,2e-05,0.0
93,7.973777194081322e-09,-0.7575646042823792,75.2,-0.7581177949905396,2e-05,0.0
94,8.587190514219856e-09,-0.7575646042823792,76.0,-0.7580177783966064,2e-05,0.0
95,9.20060294617997e-09,-0.757257878780365,76.8,-0.7579177618026733,2e-05,0.0
96,1.1040841130238732e-08,-0.757257878780365,77.6,-0.757817804813385,2e-05,0.0
97,1.5948142362276485e-08,-0.757257878780365,78.4,-0.7577177882194519,2e-05,0.0
98,1.962861873039401e-08,-0.7569512128829956,79.2,-0.7576177716255188,2e-05,0.0
99,2.3309095098511534e-08,-0.7569512128829956,80.0,-0.7575178146362305,2e-05,0.0
100,2.7602983010410753e-08,-0.7569512128829956,80.8,-0.7574177980422974,2e-05,0.0
101,2.698957146662906e-08,-0.7566444873809814,81.6,-0.7573177814483643,2e-05,0.0
102,3.128345937852828e-08,-0.7566444873809814,82.4,-0.7572177648544312,2e-05,0.0
103,3.619076238692287e-08,-0.7566444873809814,83.2,-0.7571178078651428,2e-05,0.0
104,3.803100057098163e-08,-0.7563377618789673,84.0,-0.7570177912712097,2e-05,0.0
105,3.803100057098163e-08,-0.7563377618789673,84.8,-0.7569177746772766,2e-05,0.0
106,4.661877639478007e-08,-0.7563377618789673,85.6,-0.7568178176879883,2e-05,0.0
107,4.6005364850998376e-08,-0.7560310959815979,86.4,-0.7567178010940552,2e-05,0.0
108,4.7232187938561765e-08,-0.7560310959815979,87.2,-0.7566177845001221,2e-05,0.0
109,5.4593140674796814e-08,-0.7557243704795837,88.0,-0.756517767906189,2e-05,0.0
110,5.397972913101512e-08,-0.7557243704795837,88.8,-0.7564178109169006,2e-05,0.0
111,5.888702858669603e-08,-0.7557243704795837,89.6,-0.7563177943229675,2e-05,0.0
112,6.256750850752724e-08,-0.7557243704795837,90.4,-0.7562177777290344,2e-05,0.0
113,6.134067831453649e-08,-0.7557243704795837,91.2,-0.7561177611351013,2e-05,0.0
114,6.747480796320815e-08,-0.7554176449775696,92.0,-0.756017804145813,2e-05,0.0
115,6.931504259455323e-08,-0.7554176449775696,92.8,-0.7559177875518799,2e-05,0.0
116,7.054187278754398e-08,-0.7551109790802002,93.6,-0.7558177709579468,2e-05,0.0
117,7.728940687456998e-08,-0.7551109790802002,94.4,-0.7557178139686584,2e-05,0.0
118,7.851623706756072e-08,-0.7551109790802002,95.2,-0.7556177973747253,2e-05,0.0
119,7.54491722432249e-08,-0.754804253578186,96.0,-0.7555177807807922,2e-05,0.0
120,8.403694806702333e-08,-0.754804253578186,96.8,-0.7554177641868591,2e-05,0.0
121,8.771742443514086e-08,-0.754804253578186,97.6,-0.7553178071975708,2e-05,0.0
122,8.403694806702333e-08,-0.7544975280761719,98.4,-0.7552177906036377,2e-05,0.0
123,9.017107771569499e-08,-0.7544975280761719,99.2,-0.7551177740097046,2e-05,0.0
124,9.50783771713759e-08,-0.7544975280761719,100.0,-0.7550178170204163,2e-05,0.0
125,9.56917887151576e-08,-0.7544975280761719,100.8,-0.7549178004264832,2e-05,0.0
126,9.63052002589393e-08,-0.7541908621788025,101.6,-0.75481778383255,2e-05,0.0
127,1.0673321781951017e-07,-0.7541908621788025,102.4,-0.7547177672386169,2e-05,0.0
128,1.0550639473194678e-07,-0.7538841366767883,103.2,-0.7546178102493286,2e-05,0.0
129,1.0611980627572848e-07,-0.7538841366767883,104.0,-0.7545177936553955,2e-05,0.0
130,1.1654782383629936e-07,-0.7538841366767883,104.8,-0.7544177770614624,2e-05,0.0
131,1.2022829309898952e-07,-0.7535774111747742,105.6,-0.7543177604675293,2e-05,0.0
132,1.1838805846764444e-07,-0.7535774111747742,106.4,-0.754217803478241,2e-05,0.0
133,1.245221881163161e-07,-0.7535774111747742,107.2,-0.7541177868843079,2e-05,0.0
134,1.3249655239633285e-07,-0.7535774111747742,108.0,-0.7540177702903748,2e-05,0.0
135,1.3188314085255115e-07,-0.7532707452774048,108.8,-0.7539178133010864,2e-05,0.0
136,1.3310996394011454e-07,-0.7532707452774048,109.6,-0.7538177967071533,2e-05,0.0
137,1.398575051325679e-07,-0.7532707452774048,110.4,-0.7537177801132202,2e-05,0.0
138,1.4108432822013128e-07,-0.7529640197753906,111.2,-0.7536177635192871,2e-05,0.0
139,1.4108432822013128e-07,-0.7529640197753906,112.0,-0.7535178065299988,2e-05,0.0
140,1.4476481169367617e-07,-0.7529640197753906,112.8,-0.7534177899360657,2e-05,0.0
141,1.5028551558771142e-07,-0.7526572942733765,113.6,-0.7533177733421326,2e-05,0.0
142,1.54579410605038e-07,-0.7526572942733765,114.4,-0.7532178163528442,2e-05,0.0
143,1.5641964523638308e-07,-0.7523505687713623,115.2,-0.7531177997589111,2e-05,0.0
144,1.6439400951639982e-07,-0.7523505687713623,116.0,-0.753017783164978,2e-05,0.0
145,1.6991472762128979e-07,-0.7523505687713623,116.8,-0.7529177665710449,2e-05,0.0
146,1.7359519688397995e-07,-0.7523505687713623,117.6,-0.7528178095817566,2e-05,0.0
147,1.7114155070885317e-07,-0.7520439028739929,118.4,-0.7527177929878235,2e-05,0.0
148,1.7298178534019826e-07,-0.7520439028739929,119.2,-0.7526177763938904,2e-05,0.0
149,1.7788909190130653e-07,-0.7517371773719788,120.0,-0.7525177597999573,2e-05,0.0
150,1.815695611639967e-07,-0.7517371773719788,120.8,-0.752417802810669,2e-05,0.0
151,1.821829727077784e-07,-0.7517371773719788,121.6,-0.7523177862167358,2e-05,0.0
152,1.827963984624148e-07,-0.7517371773719788,122.4,-0.7522177696228027,2e-05,0.0
153,1.9015733698779513e-07,-0.7514304518699646,123.2,-0.7521178126335144,2e-05,0.0
154,1.9138417428621324e-07,-0.7514304518699646,124.0,-0.7520177960395813,2e-05,0.0
155,1.9199758582999493e-07,-0.7514304518699646,124.8,-0.7519177794456482,2e-05,0.0
156,1.969048781802485e-07,-0.7511237859725952,125.6,-0.7518177628517151,2e-05,0.0
157,2.0303900782892015e-07,-0.7511237859725952,126.4,-0.7517178058624268,2e-05,0.0
158,1.9997195011001168e-07,-0.7511237859725952,127.2,-0.7516177892684937,2e-05,0.0
159,2.0365241937270184e-07,-0.750817060470581,128.0,-0.7515177726745605,2e-05,0.0
160,2.1162678365271859e-07,-0.750817060470581,128.8,-0.7514178156852722,2e-05,0.0
161,2.097865490213735e-07,-0.750817060470581,129.6,-0.7513177990913391,2e-05,0.0
162,2.1224019519650028e-07,-0.7505103349685669,130.4,-0.751217782497406,2e-05,0.0
163,2.1837432484517194e-07,-0.7505103349685669,131.2,-0.7511177659034729,2e-05,0.0
164,2.1837432484517194e-07,-0.7505103349685669,132.0,-0.7510178089141846,2e-05,0.0
165,2.1714750175760855e-07,-0.7502036690711975,132.8,-0.7509177923202515,2e-05,0.0
166,2.238950429500619e-07,-0.7502036690711975,133.6,-0.7508177757263184,2e-05,0.0
167,2.238950429500619e-07,-0.7502036690711975,134.4,-0.7507177591323853,2e-05,0.0
168,2.25735277581407e-07,-0.7502036690711975,135.2,-0.7506178021430969,2e-05,0.0
169,2.3370964186142373e-07,-0.7498969435691833,136.0,-0.7505177855491638,2e-05,0.0
170,2.3432305340520543e-07,-0.7498969435691833,136.8,-0.7504177689552307,2e-05,0.0
171,2.3370964186142373e-07,-0.7495902180671692,137.6,-0.7503178119659424,2e-05,0.0
172,4.25094413003535e-07,-0.7495902180671692,138.4,-0.7502177953720093,2e-05,0.0
173,4.097590817764285e-07,-0.7495902180671692,139.2,-0.7501177787780762,2e-05,0.0
174,3.7602137581416173e-07,-0.7495902180671692,140.0,-0.7500177621841431,2e-05,0.0
175,3.496446367989847e-07,-0.7492835521697998,140.8,-0.7499178051948547,2e-05,0.0
176,3.4535074178165814e-07,-0.7492835521697998,141.6,-0.7498177886009216,2e-05,0.0
177,3.41056875186041e-07,-0.7492835521697998,142.4,-0.7497177720069885,2e-05,0.0
178,3.3553615708115103e-07,-0.7489768266677856,143.2,-0.7496178150177002,2e-05,0.0
179,3.3430933399358764e-07,-0.7489768266677856,144.0,-0.7495177984237671,2e-05,0.0
180,3.386032005892048e-07,-0.7486701011657715,144.8,-0.749417781829834,2e-05,0.0
181,3.367629801687144e-07,-0.7486701011657715,145.6,-0.7493177652359009,2e-05,0.0
182,3.3308251090602425e-07,-0.7486701011657715,146.4,-0.7492178082466125,2e-05,0.0
183,3.349227313265146e-07,-0.7483634352684021,147.2,-0.7491177916526794,2e-05,0.0
184,3.373763775016414e-07,-0.7483634352684021,148.0,-0.7490177750587463,2e-05,0.0
185,3.404434494314046e-07,-0.7483634352684021,148.8,-0.748917818069458,2e-05,0.0
186,3.398300236767682e-07,-0.7480567097663879,149.6,-0.7488178014755249,2e-05,0.0
187,3.379898032562778e-07,-0.7480567097663879,150.4,-0.7487177848815918,2e-05,0.0
188,3.41670272518968e-07,-0.7480567097663879,151.2,-0.7486177682876587,2e-05,0.0
189,3.4719099062385794e-07,-0.7480567097663879,152.0,-0.7485178112983704,2e-05,0.0
190,3.4535074178165814e-07,-0.7477499842643738,152.8,-0.7484177947044373,2e-05,0.0
191,3.4535074178165814e-07,-0.7477499842643738,153.6,-0.7483177781105042,2e-05,0.0
192,3.4657756486922153e-07,-0.7477499842643738,154.4,-0.748217761516571,2e-05,0.0
193,3.533251060616749e-07,-0.7474433183670044,155.2,-0.7481178045272827,2e-05,0.0
194,3.563921779914381e-07,-0.7474433183670044,156.0,-0.7480177879333496,2e-05,0.0
195,3.8706281202394166e-07,-0.7474433183670044,156.8,-0.7479177713394165,2e-05,0.0
196,3.815420939190517e-07,-0.7471365928649902,157.6,-0.7478178143501282,2e-05,0.0
197,3.846091658488149e-07,-0.7471365928649902,158.4,-0.7477177977561951,2e-05,0.0
198,3.8583598893637827e-07,-0.7471365928649902,159.2,-0.747617781162262,2e-05,0.0
199,3.8399574009417847e-07,-0.7468298673629761,160.0,-0.7475177645683289,2e-05,0.0
200,3.833823427612515e-07,-0.7468298673629761,160.8,-0.7474178075790405,2e-05,0.0
201,3.8767623777857807e-07,-0.7468298673629761,161.6,-0.7473177909851074,2e-05,0.0
202,3.919701043741952e-07,-0.7465232014656067,162.4,-0.7472177743911743,2e-05,0.0
203,3.8890306086614146e-07,-0.7465232014656067,163.2,-0.747117817401886,2e-05,0.0
204,3.9012988395370485e-07,-0.7462164759635925,164.0,-0.7470178008079529,2e-05,0.0
205,3.968774251461582e-07,-0.7462164759635925,164.8,-0.7469177842140198,2e-05,0.0
206,3.99331071321285e-07,-0.7462164759635925,165.6,-0.7468177676200867,2e-05,0.0
207,3.968774251461582e-07,-0.7462164759635925,166.4,-0.7467178106307983,2e-05,0.0
208,4.0055789440884837e-07,-0.7459097504615784,167.2,-0.7466177940368652,2e-05,0.0
209,4.054651867591019e-07,-0.7459097504615784,168.0,-0.7465177774429321,2e-05,0.0
210,4.097590817764285e-07,-0.7459097504615784,168.8,-0.746417760848999,2e-05,0.0
211,4.085322586888651e-07,-0.745603084564209,169.6,-0.7463178038597107,2e-05,0.0
212,4.103725075310649e-07,-0.745603084564209,170.4,-0.7462177872657776,2e-05,0.0
213,4.1466637412668206e-07,-0.745603084564209,171.2,-0.7461177706718445,2e-05,0.0
214,4.2080051798620843e-07,-0.7452963590621948,172.0,-0.7460178136825562,2e-05,0.0
215,4.1896026914400863e-07,-0.7452963590621948,172.8,-0.745917797088623,2e-05,0.0
216,4.214139153191354e-07,-0.7452963590621948,173.6,-0.7458177804946899,2e-05,0.0
217,4.2816145651158877e-07,-0.7449896335601807,174.4,-0.7457177639007568,2e-05,0.0
218,4.263212360910984e-07,-0.7449896335601807,175.2,-0.7456178069114685,2e-05,0.0
219,4.3061510268671555e-07,-0.7446829676628113,176.0,-0.7455177903175354,2e-05,0.0
220,4.373626438791689e-07,-0.7446829676628113,176.8,-0.7454177737236023,2e-05,0.0
221,4.361358207916055e-07,-0.7446829676628113,177.6,-0.745317816734314,2e-05,0.0
222,4.392028927213687e-07,-0.7446829676628113,178.4,-0.7452178001403809,2e-05,0.0
223,4.4595043391382205e-07,-0.7443762421607971,179.2,-0.7451177835464478,2e-05,0.0
224,4.5024432893114863e-07,-0.7443762421607971,180.0,-0.7450177669525146,2e-05,0.0
225,4.4779068275602185e-07,-0.7443762421607971,180.8,-0.7449178099632263,2e-05,0.0
226,4.557650470360386e-07,-0.744069516658783,181.6,-0.7448177933692932,2e-05,0.0
227,4.6312598556141893e-07,-0.744069516658783,182.4,-0.7447177767753601,2e-05,0.0
228,4.5760526745652896e-07,-0.744069516658783,183.2,-0.744617760181427,2e-05,0.0
229,4.6496623440361873e-07,-0.7437627911567688,184.0,-0.7445178031921387,2e-05,0.0
230,4.686467036663089e-07,-0.7437627911567688,184.8,-0.7444177865982056,2e-05,0.0
231,4.796881398760888e-07,-0.7437627911567688,185.6,-0.7443177700042725,2e-05,0.0
232,5.054514531366294e-07,-0.7434561252593994,186.4,-0.7442178130149841,2e-05,0.0
233,5.128123916620098e-07,-0.7434561252593994,187.2,-0.744117796421051,2e-05,0.0
234,5.09745348153956e-07,-0.7434561252593994,188.0,-0.7440177798271179,2e-05,0.0
235,5.152660378371365e-07,-0.7431493997573853,188.8,-0.7439177632331848,2e-05,0.0
236,5.171062866793363e-07,-0.7431493997573853,189.6,-0.7438178062438965,2e-05,0.0
237,5.134258458383556e-07,-0.7431493997573853,190.4,-0.7437177896499634,2e-05,0.0
238,5.183331381886092e-07,-0.7428426742553711,191.2,-0.7436177730560303,2e-05,0.0
239,5.226270332059357e-07,-0.7428426742553711,192.0,-0.7435178160667419,2e-05,0.0
240,5.207867843637359e-07,-0.7428426742553711,192.8,-0.7434177994728088,2e-05,0.0
