,current,potential,elapsed_time,applied_potential,current_range,segment
0,-2.010030766541604e-05,-0.2987319231033325,0.8,-0.29938387870788574,2e-05,0.0
1,-2.010030766541604e-05,-0.29842522740364075,1.6,-0.299283891916275,2e-05,0.0
2,-2.010030766541604e-05,-0.29842522740364075,2.4,-0.2991838753223419,2e-05,0.0
3,-2.010030766541604e-05,-0.29842522740364075,3.2,-0.2990838885307312,2e-05,0.0
4,-2.010030766541604e-05,-0.29842522740364075,4.0,-0.2989838719367981,2e-05,0.0
5,-2.010030766541604e-05,-0.2981185019016266,4.8,-0.2988838851451874,2e-05,0.0
6,-2.010030766541604e-05,-0.2981185019016266,5.6,-0.2987838685512543,2e-05,0.0
7,-2.0099079847568646e-05,-0.2981185019016266,6.4,-0.29868388175964355,2e-05,0.0
8,-2.006534305110108e-05,-0.2978118062019348,7.2,-0.29858386516571045,2e-05,0.0
9,-1.9958608390879817e-05,-0.2978118062019348,8.0,-0.29848387837409973,2e-05,0.0
10,-1.9704655642271973e-05,-0.2978118062019348,8.8,-0.298383891582489,2e-05,0.0
11,-1.9480146875139326e-05,-0.29750508069992065,9.6,-0.2982838749885559,2e-05,0.0
12,-1.9158105715177953e-05,-0.29750508069992065,10.4,-0.2981838881969452,2e-05,0.0
13,-1.9021927073481493e-05,-0.29750508069992065,11.2,-0.2980838716030121,2e-05,0.0
14,-1.8777176592266187e-05,-0.2971983850002289,12.0,-0.29798388481140137,2e-05,0.0
15,-1.8516475392971188e-05,-0.2971983850002289,12.8,-0.29788386821746826,2e-05,0.0
16,-1.8199954865849577e-05,-0.2971983850002289,13.6,-0.29778388142585754,2e-05,0.0
17,-1.804721432563383e-05,-0.2968916893005371,14.4,-0.29768386483192444,2e-05,0.0
18,-1.791042450349778e-05,-0.2968916893005371,15.2,-0.2975838780403137,2e-05,0.0
19,-1.7538695828989148e-05,-0.2968916893005371,16.0,-0.297483891248703,2e-05,0.0
20,-1.7353444491163827e-05,-0.29658496379852295,16.8,-0.2973838746547699,2e-05,0.0
21,-1.7157153706648387e-05,-0.29658496379852295,17.6,-0.2972838878631592,2e-05,0.0
22,-1.687621079327073e-05,-0.29658496379852295,18.4,-0.2971838712692261,2e-05,0.0
23,-1.6578705981373787e-05,-0.2962782680988312,19.2,-0.29708388447761536,2e-05,0.0
24,-1.6544354366487823e-05,-0.2962782680988312,20.0,-0.29698386788368225,2e-05,0.0
25,-1.6381800378439948e-05,-0.2962782680988312,20.8,-0.29688388109207153,2e-05,0.0
26,-1.6105763279483654e-05,-0.2959715723991394,21.6,-0.2967838644981384,2e-05,0.0
27,-1.5838315448490903e-05,-0.2959715723991394,22.4,-0.2966838777065277,2e-05,0.0
28,-1.5578229067614302e-05,-0.29566484689712524,23.2,-0.296583890914917,2e-05,0.0
29,-1.5198526853055228e-05,-0.29566484689712524,24.0,-0.2964838743209839,2e-05,0.0
30,-1.4816983821219765e-05,-0.29566484689712524,24.8,-0.29638388752937317,2e-05,0.0
31,-1.463541411794722e-05,-0.29566484689712524,25.6,-0.29628387093544006,2e-05,0.0
32,-1.4535427908413112e-05,-0.29535815119743347,26.4,-0.29618388414382935,2e-05,0.0
33,-1.4349563571158797e-05,-0.29535815119743347,27.2,-0.29608386754989624,2e-05,0.0
34,-1.4136709069134668e-05,-0.29535815119743347,28.0,-0.2959838807582855,2e-05,0.0
35,-1.3704253433388658e-05,-0.2950514554977417,28.8,-0.2958838641643524,2e-05,0.0
36,-1.3644138562085573e-05,-0.2950514554977417,29.6,-0.2957838773727417,2e-05,0.0
37,-1.3487718206306454e-05,-0.2950514554977417,30.4,-0.295683890581131,2e-05,0.0
38,-1.2913564205518924e-05,-0.29474472999572754,31.2,-0.2955838739871979,2e-05,0.0
39,-1.266390518139815e-05,-0.29474472999572754,32.0,-0.29548388719558716,2e-05,0.0
40,-1.2603791219589766e-05,-0.29474472999572754,32.8,-0.29538387060165405,2e-05,0.0
41,-1.2468226486817002e-05,-0.29443803429603577,33.6,-0.29528388381004333,2e-05,0.0
42,-1.2409952432790305e-05,-0.29443803429603577,34.4,-0.29518386721611023,2e-05,0.0
43,-1.1355496098985896e-05,-0.294131338596344,35.2,-0.2950838804244995,2e-05,0.0
44,-1.1101543350378051e-05,-0.294131338596344,36.0,-0.2949838936328888,2e-05,0.0
45,-1.0932854820566718e-05,-0.294131338596344,36.8,-0.2948838770389557,2e-05,0.0
46,-9.807856258703396e-06,-0.294131338596344,37.6,-0.29478389024734497,2e-05,0.0
47,-9.644074452808127e-06,-0.294131338596344,38.4,-0.29468387365341187,2e-05,0.0
48,-9.260078513761982e-06,-0.29382461309432983,39.2,-0.29458388686180115,2e-05,0.0
49,-8.763214282225817e-06,-0.29382461309432983,40.0,-0.29448387026786804,2e-05,0.0
50,-8.59636566019617e-06,-0.29351791739463806,40.8,-0.2943838834762573,2e-05,0.0
51,-8.086620255198795e-06,-0.29351791739463806,41.6,-0.2942838668823242,2e-05,0.0
52,-7.96148378867656e-06,-0.29351791739463806,42.4,-0.2941838800907135,2e-05,0.0
53,-7.778073268127628e-06,-0.2932111918926239,43.2,-0.2940838932991028,2e-05,0.0
54,-7.37138088879874e-06,-0.2932111918926239,44.0,-0.2939838767051697,2e-05,0.0
55,6.321830369415693e-06,-0.2932111918926239,44.8,-0.29388388991355896,2e-05,0.0
56,-6.760421911167214e-06,-0.29290449619293213,45.6,-0.29378387331962585,2e-05,0.0
57,-9.306697393185459e-06,-0.29290449619293213,46.4,-0.29368388652801514,2e-05,0.0
58,-1.022374999593012e-05,-0.29290449619293213,47.2,-0.29358386993408203,2e-05,0.0
59,-1.0532909982430283e-05,-0.29259780049324036,48.0,-0.2934838831424713,2e-05,0.0
60,-1.0538430615270045e-05,-0.29259780049324036,48.8,-0.2933838665485382,2e-05,0.0
61,-1.0544564247538801e-05,-0.29259780049324036,49.6,-0.2932838797569275,2e-05,0.0
62,-1.0479542652319651e-05,-0.2922910749912262,50.4,-0.2931838929653168,2e-05,0.0
63,-1.040286588249728e-05,-0.2922910749912262,51.2,-0.29308387637138367,2e-05,0.0
64,-1.0285090866091195e-05,-0.2922910749912262,52.0,-0.29298388957977295,2e-05,0.0
65,-1.0183877748204395e-05,-0.2919843792915344,52.8,-0.29288387298583984,2e-05,0.0
66,-1.0080824722535908e-05,-0.2919843792915344,53.6,-0.2927838861942291,2e-05,0.0
67,-9.954461347660981e-06,-0.2919843792915344,54.4,-0.292683869600296,2e-05,0.0
68,-9.826258065004367e-06,-0.2919843792915344,55.2,-0.2925838828086853,2e-05,0.0
69,-9.660023351898417e-06,-0.29167768359184265,56.0,-0.2924838662147522,2e-05,0.0
70,-9.506056812824681e-06,-0.29167768359184265,56.8,-0.2923838794231415,2e-05,0.0
71,-9.325100108981133e-06,-0.29167768359184265,57.6,-0.29228389263153076,2e-05,0.0
72,-9.114699423662387e-06,-0.2913709580898285,58.4,-0.29218387603759766,2e-05,0.0
73,-8.864427400112618e-06,-0.2913709580898285,59.2,-0.29208388924598694,2e-05,0.0
74,-8.611087650933769e-06,-0.2913709580898285,60.0,-0.29198387265205383,2e-05,0.0
75,-8.391485607717186e-06,-0.2910642623901367,60.8,-0.2918838858604431,2e-05,0.0
76,-8.165136932802852e-06,-0.2910642623901367,61.6,-0.29178386926651,2e-05,0.0
77,-7.930812898848671e-06,-0.2910642623901367,62.4,-0.2916838824748993,2e-05,0.0
78,-7.698329682170879e-06,-0.29075756669044495,63.2,-0.2915838658809662,2e-05,0.0
79,-7.471367098332848e-06,-0.29075756669044495,64.0,-0.29148387908935547,2e-05,0.0
80,-7.255445780174341e-06,-0.29075756669044495,64.8,-0.29138389229774475,2e-05,0.0
81,-7.03277692082338e-06,-0.2904508411884308,65.6,-0.29128387570381165,2e-05,0.0
82,-6.83035068504978e-06,-0.2904508411884308,66.4,-0.2911838889122009,2e-05,0.0
83,-6.604001555388095e-06,-0.290144145488739,67.2,-0.2910838723182678,2e-05,0.0
84,-6.389920599758625e-06,-0.290144145488739,68.0,-0.2909838855266571,2e-05,0.0
85,-6.132287126092706e-06,-0.290144145488739,68.8,-0.290883868932724,2e-05,0.0
86,-5.980160949548008e-06,-0.290144145488739,69.6,-0.2907838821411133,2e-05,0.0
87,-5.796750428999076e-06,-0.28983744978904724,70.4,-0.2906838655471802,2e-05,0.0
88,-5.6538251556048635e-06,-0.28983744978904724,71.2,-0.29058387875556946,2e-05,0.0
89,-5.434837021311978e-06,-0.28983744978904724,72.0,-0.29048389196395874,2e-05,0.0
90,-5.227503606874961e-06,-0.2895307242870331,72.8,-0.29038387537002563,2e-05,0.0
91,-5.066176072432427e-06,-0.2895307242870331,73.6,-0.2902838885784149,2e-05,0.0
92,-4.888899638899602e-06,-0.2895307242870331,74.4,-0.2901838719844818,2e-05,0.0
93,-4.713463567895815e-06,-0.2892240285873413,75.2,-0.2900838851928711,2e-05,0.0
94,-4.298183284845436e-06,-0.2892240285873413,76.0,-0.289983868598938,2e-05,0.0
95,-4.0215340959548485e-06,-0.2892240285873413,76.8,-0.28988388180732727,2e-05,0.0
96,-3.852232111967169e-06,-0.28891730308532715,77.6,-0.28978386521339417,2e-05,0.0
97,-3.479277211226872e-06,-0.28891730308532715,78.4,-0.28968387842178345,2e-05,0.0
98,-3.33205821334559e-06,-0.28891730308532715,79.2,-0.28958389163017273,2e-05,0.0
99,-2.963397264466039e-06,-0.28891730308532715,80.0,-0.2894838750362396,2e-05,0.0
100,-2.6456493742443854e-06,-0.2886106073856354,80.8,-0.2893838882446289,2e-05,0.0
101,-2.4162332010746468e-06,-0.2886106073856354,81.6,-0.2892838716506958,2e-05,0.0
102,-2.173935172322672e-06,-0.2883039116859436,82.4,-0.2891838848590851,2e-05,0.0
103,-1.9580138541641645e-06,-0.2883039116859436,83.2,-0.289083868265152,2e-05,0.0
104,-1.6770708270996693e-06,-0.2883039116859436,84.0,-0.28898388147354126,2e-05,0.0
105,-1.447654540243093e-06,-0.2883039116859436,84.8,-0.28888386487960815,2e-05,0.0
106,-1.288167254642758e-06,-0.28799718618392944,85.6,-0.28878387808799744,2e-05,0.0
107,-1.225599135068478e-06,-0.28799718618392944,86.4,-0.2886838912963867,2e-05,0.0
108,-1.1740725085473969e-06,-0.28769049048423767,87.2,-0.2885838747024536,2e-05,0.0
109,-9.238000870936958e-07,-0.28769049048423767,88.0,-0.2884838879108429,2e-05,0.0
110,-7.440701779160008e-07,-0.28769049048423767,88.8,-0.2883838713169098,2e-05,0.0
111,-4.31843119486075e-07,-0.2873837947845459,89.6,-0.2882838845252991,2e-05,0.0
112,-1.9322558841849968e-07,-0.2873837947845459,90.4,-0.28818386793136597,2e-05,0.0
113,-3.435169659837811e-08,-0.2873837947845459,91.2,-0.28808388113975525,2e-05,0.0
114,3.9871764556664857e-07,-0.28707706928253174,92.0,-0.28798386454582214,2e-05,0.0
115,6.115718633736833e-07,-0.28707706928253174,92.8,-0.2878838777542114,2e-05,0.0
116,7.747396466584178e-07,-0.28707706928253174,93.6,-0.2877838909626007,2e-05,0.0
117,8.25039478513645e-07,-0.28707706928253174,94.4,-0.2876838743686676,2e-05,0.0
118,1.2519747087935684e-06,-0.28677037358283997,95.2,-0.2875838875770569,2e-05,0.0
119,1.3372390412769164e-06,-0.28677037358283997,96.0,-0.2874838709831238,2e-05,0.0
120,1.4862982880003983e-06,-0.28677037358283997,96.8,-0.28738388419151306,2e-05,0.0
121,1.5868980653976905e-06,-0.2864636778831482,97.6,-0.28728386759757996,2e-05,0.0
122,2.0420502551132813e-06,-0.2864636778831482,98.4,-0.28718388080596924,2e-05,0.0
123,2.278827423651819e-06,-0.2864636778831482,99.2,-0.28708386421203613,2e-05,0.0
124,2.3677723675064044e-06,-0.28615695238113403,100.0,-0.2869838774204254,2e-05,0.0
125,2.394762532276218e-06,-0.28615695238113403,100.8,-0.2868838906288147,2e-05,0.0
126,2.6916543447441654e-06,-0.28585025668144226,101.6,-0.2867838740348816,2e-05,0.0
127,2.750541852947208e-06,-0.28585025668144226,102.4,-0.2866838872432709,2e-05,0.0
128,2.8296722121012863e-06,-0.28585025668144226,103.2,-0.28658387064933777,2e-05,0.0
129,2.8413269319571555e-06,-0.28585025668144226,104.0,-0.28648388385772705,2e-05,0.0
130,2.916163339250488e-06,-0.2855435609817505,104.8,-0.28638386726379395,2e-05,0.0
131,3.1032541301101446e-06,-0.2855435609817505,105.6,-0.2862838804721832,2e-05,0.0
132,4.221505605528364e-06,-0.28523683547973633,106.4,-0.2861838936805725,2e-05,0.0
133,4.880310825683409e-06,-0.28523683547973633,107.2,-0.2860838770866394,2e-05,0.0
134,4.8594547479297034e-06,-0.28523683547973633,108.0,-0.2859838902950287,2e-05,0.0
135,4.853934115089942e-06,-0.28523683547973633,108.8,-0.2858838737010956,2e-05,0.0
136,5.171681550564244e-06,-0.28493013978004456,109.6,-0.28578388690948486,2e-05,0.0
137,5.319514002621872e-06,-0.28493013978004456,110.4,-0.28568387031555176,2e-05,0.0
138,5.488202532433206e-06,-0.28493013978004456,111.2,-0.28558388352394104,2e-05,0.0
139,5.701670488633681e-06,-0.2846234142780304,112.0,-0.28548386693000793,2e-05,0.0
140,5.847049123985926e-06,-0.2846234142780304,112.8,-0.2853838801383972,2e-05,0.0
141,5.910230811423389e-06,-0.2846234142780304,113.6,-0.2852838933467865,2e-05,0.0
142,6.0120569287391845e-06,-0.2843167185783386,114.4,-0.2851838767528534,2e-05,0.0
143,1.6801372112240642e-05,-0.2843167185783386,115.2,-0.2850838899612427,2e-05,0.0
144,1.3666834092873614e-05,-0.2843167185783386,116.0,-0.28498387336730957,2e-05,0.0
145,8.027117473830003e-06,-0.28401002287864685,116.8,-0.28488388657569885,2e-05,0.0
146,6.190560270624701e-06,-0.28401002287864685,117.6,-0.28478386998176575,2e-05,0.0
147,5.435449111246271e-06,-0.28401002287864685,118.4,-0.28468388319015503,2e-05,0.0
148,5.118314675200963e-06,-0.2837032973766327,119.2,-0.2845838665962219,2e-05,0.0
149,5.0888711484731175e-06,-0.2837032973766327,120.0,-0.2844838798046112,2e-05,0.0
150,5.160026830708375e-06,-0.2837032973766327,120.8,-0.2843838930130005,2e-05,0.0
151,5.226275334280217e-06,-0.2833966016769409,121.6,-0.2842838764190674,2e-05,0.0
152,5.2986579248681664e-06,-0.2833966016769409,122.4,-0.28418388962745667,2e-05,0.0
153,5.4213405746850185e-06,-0.2833966016769409,123.2,-0.28408387303352356,2e-05,0.0
154,5.5930963753780816e-06,-0.28308990597724915,124.0,-0.28398388624191284,2e-05,0.0
155,5.715165571018588e-06,-0.28308990597724915,124.8,-0.28388386964797974,2e-05,0.0
156,5.855023573531071e-06,-0.28308990597724915,125.6,-0.283783882856369,2e-05,0.0
157,5.9918143051618244e-06,-0.282783180475235,126.4,-0.2836838662624359,2e-05,0.0
158,6.160502834973158e-06,-0.282783180475235,127.2,-0.2835838794708252,2e-05,0.0
159,6.251288141356781e-06,-0.282783180475235,128.0,-0.2834838926792145,2e-05,0.0
160,6.37581069895532e-06,-0.2824764847755432,128.8,-0.28338387608528137,2e-05,0.0
161,6.5285507844237145e-06,-0.2824764847755432,129.6,-0.28328388929367065,2e-05,0.0
162,6.735270744684385e-06,-0.2824764847755432,130.4,-0.28318387269973755,2e-05,0.0
163,6.926041805854766e-06,-0.28216978907585144,131.2,-0.28308388590812683,2e-05,0.0
164,7.11497295924346e-06,-0.28216978907585144,132.0,-0.2829838693141937,2e-05,0.0
165,7.310038199648261e-06,-0.28216978907585144,132.8,-0.282883882522583,2e-05,0.0
166,7.519211976614315e-06,-0.2818630635738373,133.6,-0.2827838659286499,2e-05,0.0
167,7.713050763413776e-06,-0.2818630635738373,134.4,-0.2826838791370392,2e-05,0.0
168,7.932651897135656e-06,-0.2818630635738373,135.2,-0.28258389234542847,2e-05,0.0
169,8.18537864688551e-06,-0.2815563678741455,136.0,-0.28248387575149536,2e-05,0.0
170,8.412341230723541e-06,-0.2815563678741455,136.8,-0.28238388895988464,2e-05,0.0
171,8.61354055814445e-06,-0.2815563678741455,137.6,-0.28228387236595154,2e-05,0.0
172,8.886509021976963e-06,-0.28124967217445374,138.4,-0.2821838855743408,2e-05,0.0
173,9.169291843136307e-06,-0.28124967217445374,139.2,-0.2820838689804077,2e-05,0.0
174,9.36006381380139e-06,-0.28124967217445374,140.0,-0.281983882188797,2e-05,0.0
175,9.563716957927682e-06,-0.2809429466724396,140.8,-0.2818838655948639,2e-05,0.0
176,9.767983101482969e-06,-0.2809429466724396,141.6,-0.2817838788032532,2e-05,0.0
177,9.933603905665223e-06,-0.2809429466724396,142.4,-0.28168389201164246,2e-05,0.0
178,1.0083890629175585e-05,-0.2809429466724396,143.2,-0.28158387541770935,2e-05,0.0
179,1.0255645975121297e-05,-0.2806362509727478,144.0,-0.28148388862609863,2e-05,0.0
180,1.0575234227871988e-05,-0.2806362509727478,144.8,-0.2813838720321655,2e-05,0.0
181,1.0853723324544262e-05,-0.28032952547073364,145.6,-0.2812838852405548,2e-05,0.0
182,1.1096634807472583e-05,-0.28032952547073364,146.4,-0.2811838686466217,2e-05,0.0
183,1.1243853805353865e-05,-0.28032952547073364,147.2,-0.281083881855011,2e-05,0.0
184,1.1514368452480994e-05,-0.28002282977104187,148.0,-0.2809838652610779,2e-05,0.0
185,1.1665268175420351e-05,-0.28002282977104187,148.8,-0.28088387846946716,2e-05,0.0
186,1.1844384971482214e-05,-0.28002282977104187,149.6,-0.28078389167785645,2e-05,0.0
187,1.2146797416789923e-05,-0.2797161340713501,150.4,-0.28068387508392334,2e-05,0.0
188,1.2344929928076454e-05,-0.2797161340713501,151.2,-0.2805838882923126,2e-05,0.0
189,1.2509323823906016e-05,-0.2797161340713501,152.0,-0.2804838716983795,2e-05,0.0
190,1.2695802070084028e-05,-0.27940940856933594,152.8,-0.2803838849067688,2e-05,0.0
191,1.2862036783189978e-05,-0.27940940856933594,153.6,-0.2802838683128357,2e-05,0.0
192,1.3098200724925846e-05,-0.27940940856933594,154.4,-0.280183881521225,2e-05,0.0
193,1.3278543519845698e-05,-0.27910271286964417,155.2,-0.28008386492729187,2e-05,0.0
194,1.338527727057226e-05,-0.27910271286964417,156.0,-0.27998387813568115,2e-05,0.0
195,1.3523908819479402e-05,-0.27910271286964417,156.8,-0.27988389134407043,2e-05,0.0
196,1.3628802662424278e-05,-0.27910271286964417,157.6,-0.27978387475013733,2e-05,0.0
197,1.384963070449885e-05,-0.2787960171699524,158.4,-0.2796838879585266,2e-05,0.0
198,1.3974153262097389e-05,-0.2787960171699524,159.2,-0.2795838713645935,2e-05,0.0
199,1.42041835715645e-05,-0.2787960171699524,160.0,-0.2794838845729828,2e-05,0.0
200,1.4590020327887032e-05,-0.27848929166793823,160.8,-0.2793838679790497,2e-05,0.0
201,1.493169111199677e-05,-0.27848929166793823,161.6,-0.27928388118743896,2e-05,0.0
202,1.5226129107759334e-05,-0.27848929166793823,162.4,-0.27918386459350586,2e-05,0.0
203,1.547394822409842e-05,-0.27818259596824646,163.2,-0.27908387780189514,2e-05,0.0
204,1.5742622053949162e-05,-0.27818259596824646,164.0,-0.2789838910102844,2e-05,0.0
205,1.590762985870242e-05,-0.27818259596824646,164.8,-0.2788838744163513,2e-05,0.0
206,1.6060370398918167e-05,-0.2778759002685547,165.6,-0.2787838876247406,2e-05,0.0
207,1.6821615645312704e-05,-0.2778759002685547,166.4,-0.2786838710308075,2e-05,0.0
208,1.69669947354123e-05,-0.2778759002685547,167.2,-0.2785838842391968,2e-05,0.0
209,1.7055939679266885e-05,-0.2775691747665405,168.0,-0.27848386764526367,2e-05,0.0
210,1.7170033970614895e-05,-0.2775691747665405,168.8,-0.27838388085365295,2e-05,0.0
211,1.7310505427303724e-05,-0.2775691747665405,169.6,-0.27828389406204224,2e-05,0.0
212,1.7747255697031505e-05,-0.27726247906684875,170.4,-0.27818387746810913,2e-05,0.0
213,1.770860944816377e-05,-0.27726247906684875,171.2,-0.2780838906764984,2e-05,0.0
214,1.752765274432022e-05,-0.27726247906684875,172.0,-0.2779838740825653,2e-05,0.0
215,1.7555257727508433e-05,-0.276955783367157,172.8,-0.2778838872909546,2e-05,0.0
216,1.7518452295917086e-05,-0.276955783367157,173.6,-0.2777838706970215,2e-05,0.0
217,1.749636976455804e-05,-0.276955783367157,174.4,-0.27768388390541077,2e-05,0.0
218,1.7449136066716164e-05,-0.2766490578651428,175.2,-0.27758386731147766,2e-05,0.0
219,1.732522650854662e-05,-0.2766490578651428,176.0,-0.27748388051986694,2e-05,0.0
220,1.74006763700163e-05,-0.2766490578651428,176.8,-0.2773838937282562,2e-05,0.0
221,1.7282902263104916e-05,-0.27634236216545105,177.6,-0.2772838771343231,2e-05,0.0
222,1.724487083265558e-05,-0.27634236216545105,178.4,-0.2771838903427124,2e-05,0.0
223,1.7301917978329584e-05,-0.27634236216545105,179.2,-0.2770838737487793,2e-05,0.0
224,1.7327680325252004e-05,-0.2760356366634369,180.0,-0.2769838869571686,2e-05,0.0
225,1.9523698938428424e-05,-0.2760356366634369,180.8,-0.2768838703632355,2e-05,0.0
226,2.002730980166234e-05,-0.2760356366634369,181.6,-0.27678388357162476,2e-05,0.0
227,1.9982531739515252e-05,-0.2757289409637451,182.4,-0.27668386697769165,2e-05,0.0
228,1.9821203750325367e-05,-0.2757289409637451,183.2,-0.27658388018608093,2e-05,0.0
229,1.975679515453521e-05,-0.2757289409637451,184.0,-0.2764838933944702,2e-05,0.0
230,1.9726125174202025e-05,-0.27542224526405334,184.8,-0.2763838768005371,2e-05,0.0
231,1.956479718501214e-05,-0.27542224526405334,185.6,-0.2762838900089264,2e-05,0.0
232,1.9405310013098642e-05,-0.2751155197620392,186.4,-0.2761838734149933,2e-05,0.0
233,1.939549474627711e-05,-0.2751155197620392,187.2,-0.27608388662338257,2e-05,0.0
234,1.924459502333775e-05,-0.2751155197620392,188.0,-0.27598387002944946,2e-05,0.0
235,1.917221197800245e-05,-0.2751155197620392,188.8,-0.27588388323783875,2e-05,0.0
236,1.8977147192345e-05,-0.2748088240623474,189.6,-0.27578386664390564,2e-05,0.0
237,1.933047315105796e-05,-0.2748088240623474,190.4,-0.2756838798522949,2e-05,0.0
238,2.009969284699764e-05,-0.2748088240623474,191.2,-0.2755838930606842,2e-05,0.0
239,2.009969284699764e-05,-0.27450212836265564,192.0,-0.2754838764667511,2e-05,0.0
240,2.009969284699764e-05,-0.27450212836265564,192.8,-0.2753838896751404,2e-05,0.0
