,current,potential,elapsed_time,applied_potential,current_range,segment
0,-0.0003907439240720123,-1.2976744174957275,0.024,-1.2999999523162842,0.002,0.0
1,-0.00037111472920514643,-1.2955275774002075,0.048,-1.298200011253357,0.002,0.0
2,-0.00035749695962294936,-1.2943006753921509,0.072,-1.2963999509811401,0.002,0.0
3,-0.0003456581034697592,-1.2924604415893555,0.096,-1.294600009918213,0.002,0.0
4,-0.00033621155307628214,-1.290313482284546,0.12,-1.292799949645996,0.002,0.0
5,-0.00032805316732265055,-1.2887799739837646,0.144,-1.2910000085830688,0.002,0.0
6,-0.00032112159533426166,-1.2869397401809692,0.168,-1.289199948310852,0.002,0.0
7,-0.0003154168662149459,-1.2847927808761597,0.192,-1.2874000072479248,0.002,0.0
8,-0.00031001883326098323,-1.2835659980773926,0.216,-1.285599946975708,0.002,0.0
9,-0.0003063383628614247,-1.281419038772583,0.24,-1.2838000059127808,0.002,0.0
10,-0.00030320993391796947,-1.280192255973816,0.264,-1.281999945640564,0.002,0.0
11,-0.0003013696987181902,-1.2777385711669922,0.288,-1.2802000045776367,0.002,0.0
12,-0.0002981186262331903,-1.276205062866211,0.312,-1.27839994430542,0.002,0.0
13,-0.0002952969225589186,-1.2746714353561401,0.336,-1.2766000032424927,0.002,0.0
14,-0.0002927819441538304,-1.2725245952606201,0.36,-1.2747999429702759,0.002,0.0
15,-0.00029014426399953663,-1.2700709104537964,0.384,-1.2730000019073486,0.002,0.0
16,-0.00028818132705055177,-1.2688441276550293,0.408,-1.2711999416351318,0.002,0.0
17,-0.00028529830160550773,-1.2670038938522339,0.432,-1.2694000005722046,0.002,0.0
18,-0.00028345806640572846,-1.265163540840149,0.456,-1.2675999402999878,0.002,0.0
19,-0.0002807590353768319,-1.2633233070373535,0.48,-1.2657999992370605,0.002,0.0
20,-0.0002788574493024498,-1.261483073234558,0.504,-1.2639999389648438,0.002,0.0
21,-0.00027652649441733956,-1.260256290435791,0.528,-1.2621999979019165,0.002,0.0
22,-0.00027444088482297957,-1.2578026056289673,0.552,-1.2603999376296997,0.002,0.0
23,-0.0002723552752286196,-1.256269097328186,0.576,-1.2585999965667725,0.002,0.0
24,-0.0002700856712181121,-1.2547355890274048,0.6,-1.2567999362945557,0.002,0.0
25,-0.00026818408514373004,-1.2528953552246094,0.624,-1.2549999952316284,0.002,0.0
26,-0.0002654850541148335,-1.2516685724258423,0.648,-1.2531999349594116,0.002,0.0
27,-0.0002636448189150542,-1.2492148876190186,0.672,-1.2513999938964844,0.002,0.0
28,-0.00025971897412091494,-1.2476813793182373,0.696,-1.2495999336242676,0.002,0.0
29,-0.0002521740098018199,-1.245841145515442,0.72,-1.2477999925613403,0.002,0.0
30,-0.000251989986281842,-1.2440009117126465,0.744,-1.2459999322891235,0.002,0.0
31,-0.00024837086675688624,-1.2415472269058228,0.768,-1.2441999912261963,0.002,0.0
32,-0.0002453651395626366,-1.2400137186050415,0.792,-1.2423999309539795,0.002,0.0
33,-0.0002425434358883649,-1.238173484802246,0.816,-1.2405999898910522,0.002,0.0
34,-0.00024045782629400492,-1.2369465827941895,0.84,-1.2387999296188354,0.002,0.0
35,-0.00023757478629704565,-1.2347996234893799,0.864,-1.2369999885559082,0.002,0.0
36,-0.00023585723829455674,-1.2329593896865845,0.888,-1.2351999282836914,0.002,0.0
37,-0.00023346491798292845,-1.230812430381775,0.912,-1.2333999872207642,0.002,0.0
38,-0.00023193139350041747,-1.2295856475830078,0.936,-1.2315999269485474,0.002,0.0
39,-0.00023039785446599126,-1.2277454137802124,0.96,-1.2297999858856201,0.002,0.0
40,-0.0002290483535034582,-1.2255984544754028,0.984,-1.2279999256134033,0.002,0.0
41,-0.00022886432998348027,-1.22467839717865,1.008,-1.226199984550476,0.002,0.0
42,-0.00022886432998348027,-1.2225314378738403,1.032,-1.2243999242782593,0.002,0.0
43,-0.00022960042406339198,-1.2203844785690308,1.056,-1.222599983215332,0.002,0.0
44,-0.00022868030646350235,-1.2182375192642212,1.08,-1.2207999229431152,0.002,0.0
45,-0.00022837359574623406,-1.2163972854614258,1.104,-1.218999981880188,0.002,0.0
46,-0.00022714676742907614,-1.2148637771606445,1.128,-1.2171999216079712,0.002,0.0
47,-0.00022634933702647686,-1.2133302688598633,1.152,-1.215399980545044,0.002,0.0
48,-0.00022555190662387758,-1.2111833095550537,1.176,-1.2135999202728271,0.002,0.0
49,-0.0002242023911094293,-1.2096498012542725,1.2,-1.2117999792099,0.002,0.0
50,-0.00022365032054949552,-1.2084228992462158,1.224,-1.209999918937683,0.002,0.0
51,-0.00022205544519238174,-1.2062759399414062,1.248,-1.2081999778747559,0.002,0.0
52,-0.00022150337463244796,-1.203515648841858,1.272,-1.206399917602539,0.002,0.0
53,-0.00021972447575535625,-1.2025954723358154,1.296,-1.2045999765396118,0.002,0.0
54,-0.0002188657090300694,-1.20075523853302,1.32,-1.202799916267395,0.002,0.0
55,-0.00021739350631833076,-1.1989150047302246,1.344,-1.2009999752044678,0.002,0.0
56,-0.00021598266903311014,-1.1964613199234009,1.368,-1.199199914932251,0.002,0.0
57,-0.00021469448984134942,-1.1949278116226196,1.392,-1.1973999738693237,0.002,0.0
58,-0.00021273158199619502,-1.1937010288238525,1.416,-1.195599913597107,0.002,0.0
59,-0.0002115047536790371,-1.1918607950210571,1.44,-1.1937999725341797,0.002,0.0
60,-0.0002091737842420116,-1.1903272867202759,1.464,-1.191999912261963,0.002,0.0
61,-0.00020377575128804892,-1.187566876411438,1.488,-1.1901999711990356,0.002,0.0
62,-0.00020113807113375515,-1.1860333681106567,1.512,-1.1883999109268188,0.002,0.0
63,-0.0001987457653740421,-1.1841931343078613,1.536,-1.1865999698638916,0.002,0.0
64,-0.00019574003817979246,-1.182352900505066,1.56,-1.1847999095916748,0.002,0.0
65,-0.00019328639609739184,-1.1808193922042847,1.584,-1.1829999685287476,0.002,0.0
66,-0.00019126213737763464,-1.1792857646942139,1.608,-1.1811999082565308,0.002,0.0
67,-0.00018862445722334087,-1.1771389245986938,1.632,-1.1793999671936035,0.002,0.0
68,-0.00018709093274082989,-1.175605297088623,1.656,-1.1775999069213867,0.002,0.0
69,-0.00018488263594917953,-1.1737650632858276,1.68,-1.1757999658584595,0.002,0.0
70,-0.00018377849482931197,-1.1719248294830322,1.704,-1.1739999055862427,0.002,0.0
71,-0.00018212228314951062,-1.1697778701782227,1.728,-1.1721999645233154,0.002,0.0
72,-0.00018132485274691135,-1.1679376363754272,1.752,-1.1703999042510986,0.002,0.0
73,-0.00018107947835233063,-1.166404128074646,1.776,-1.1685999631881714,0.002,0.0
74,-0.00018144752539228648,-1.1645638942718506,1.8,-1.1667999029159546,0.002,0.0
75,-0.00018279704090673476,-1.1627236604690552,1.824,-1.1649999618530273,0.002,0.0
76,-0.00018249033018946648,-1.1608834266662598,1.848,-1.1631999015808105,0.002,0.0
77,-0.0001826743537094444,-1.1593499183654785,1.872,-1.1613999605178833,0.002,0.0
78,-0.00018175423610955477,-1.157202959060669,1.896,-1.1595999002456665,0.002,0.0
79,-0.00018175423610955477,-1.1556694507598877,1.92,-1.1577999591827393,0.002,0.0
80,-0.00018114082922693342,-1.1538292169570923,1.944,-1.1559998989105225,0.002,0.0
81,-0.0001804047351470217,-1.1519889831542969,1.968,-1.1541999578475952,0.002,0.0
82,-0.0001798526500351727,-1.1498420238494873,1.992,-1.1523998975753784,0.002,0.0
83,-0.00017868717259261757,-1.1486152410507202,2.016,-1.1505999565124512,0.002,0.0
84,-0.00017838046187534928,-1.1467750072479248,2.04,-1.1487998962402344,0.002,0.0
85,-0.00017696961003821343,-1.1446280479431152,2.064,-1.1469999551773071,0.002,0.0
86,-0.00017660156299825758,-1.1430944204330444,2.088,-1.1452000141143799,0.002,0.0
87,-0.00017512937483843416,-1.1415609121322632,2.112,-1.143399953842163,0.002,0.0
88,-0.0001745159679558128,-1.1394139528274536,2.136,-1.1416000127792358,0.002,0.0
89,-0.00017316645244136453,-1.1378804445266724,2.16,-1.139799952507019,0.002,0.0
90,-0.00017181695147883147,-1.136040210723877,2.184,-1.1380000114440918,0.002,0.0
91,-0.0001706514594843611,-1.1335865259170532,2.208,-1.136199951171875,0.002,0.0
92,-0.00016813648107927293,-1.132053017616272,2.232,-1.1344000101089478,0.002,0.0
93,-0.00016286112077068537,-1.1305195093154907,2.256,-1.132599949836731,0.002,0.0
94,-0.00016145026893354952,-1.1286792755126953,2.28,-1.1308000087738037,0.002,0.0
95,-0.00015893529052846134,-1.1268390417099,2.304,-1.128999948501587,0.002,0.0
96,-0.00015611358685418963,-1.1249988079071045,2.328,-1.1272000074386597,0.002,0.0
97,-0.00015415066445712,-1.1234652996063232,2.352,-1.1253999471664429,0.002,0.0
98,-0.0001523717655800283,-1.1213183403015137,2.376,-1.1236000061035156,0.002,0.0
99,-0.00015016348334029317,-1.1194781064987183,2.4,-1.1217999458312988,0.002,0.0
100,-0.00014899800589773804,-1.117944598197937,2.424,-1.1200000047683716,0.002,0.0
101,-0.0001470350835006684,-1.1161043643951416,2.448,-1.1181999444961548,0.002,0.0
102,-0.00014642166206613183,-1.1142641305923462,2.472,-1.1164000034332275,0.002,0.0
103,-0.00014501081022899598,-1.1127305030822754,2.496,-1.1145999431610107,0.002,0.0
104,-0.00014482678670901805,-1.1105835437774658,2.52,-1.1128000020980835,0.002,0.0
105,-0.0001444587396690622,-1.1090500354766846,2.544,-1.1109999418258667,0.002,0.0
106,-0.00014537885726895183,-1.106903076171875,2.568,-1.1092000007629395,0.002,0.0
107,-0.00014636032574344426,-1.1053695678710938,2.592,-1.1073999404907227,0.002,0.0
108,-0.00014636032574344426,-1.1032226085662842,2.616,-1.1055999994277954,0.002,0.0
109,-0.00014691239630337805,-1.1010756492614746,2.64,-1.1037999391555786,0.002,0.0
110,-0.00014617630222346634,-1.0998488664627075,2.664,-1.1019999980926514,0.002,0.0
111,-0.00014636032574344426,-1.098008632659912,2.688,-1.1001999378204346,0.002,0.0
112,-0.00014568556798622012,-1.0958616733551025,2.712,-1.0983999967575073,0.002,0.0
113,-0.00014568556798622012,-1.0946348905563354,2.736,-1.0965999364852905,0.002,0.0
114,-0.00014513349742628634,-1.0924879312515259,2.76,-1.0947999954223633,0.002,0.0
115,-0.0001444587396690622,-1.0903409719467163,2.784,-1.0929999351501465,0.002,0.0
116,-0.00014409069262910634,-1.0891141891479492,2.808,-1.0911999940872192,0.002,0.0
117,-0.00014298655150923878,-1.0872739553451538,2.832,-1.0893999338150024,0.002,0.0
118,-0.00014280252798926085,-1.0851269960403442,2.856,-1.0875999927520752,0.002,0.0
119,-0.00014157569967210293,-1.0842068195343018,2.88,-1.0857999324798584,0.002,0.0
120,-0.00014126900350674987,-1.0817532539367676,2.904,-1.0839999914169312,0.002,0.0
121,-0.00013991948799230158,-1.0799130201339722,2.928,-1.0821999311447144,0.002,0.0
122,-0.00013899937039241195,-1.0780727863311768,2.952,-1.080399990081787,0.002,0.0
123,-0.0001380792527925223,-1.0759258270263672,2.976,-1.0785999298095703,0.002,0.0
124,-0.00013648437743540853,-1.0746989250183105,3.0,-1.076799988746643,0.002,0.0
125,-0.00013268121983855963,-1.0731654167175293,3.024,-1.0749999284744263,0.002,0.0
126,-0.00013010489055886865,-1.0710184574127197,3.048,-1.073199987411499,0.002,0.0
127,-0.00012832599168177694,-1.0688714981079102,3.072,-1.0713999271392822,0.002,0.0
128,-0.0001256269752047956,-1.067337989807129,3.096,-1.069599986076355,0.002,0.0
129,-0.00012403209984768182,-1.0654977560043335,3.12,-1.0677999258041382,0.002,0.0
130,-0.00012194649752927944,-1.0639642477035522,3.144,-1.065999984741211,0.002,0.0
131,-0.00012041296577081084,-1.062430739402771,3.168,-1.0641999244689941,0.002,0.0
132,-0.0001190021212096326,-1.0599770545959473,3.192,-1.062399983406067,0.002,0.0
133,-0.00011734590225387365,-1.058443546295166,3.216,-1.06059992313385,0.002,0.0
134,-0.00011679383169393986,-1.0562965869903564,3.24,-1.0587999820709229,0.002,0.0
135,-0.00011526029993547127,-1.054456353187561,3.264,-1.056999921798706,0.002,0.0
136,-0.00011532164353411645,-1.0523093938827515,3.288,-1.0551999807357788,0.002,0.0
137,-0.0001146468857768923,-1.0510826110839844,3.312,-1.053399920463562,0.002,0.0
138,-0.00011562834697542712,-1.049242377281189,3.336,-1.0515999794006348,0.002,0.0
139,-0.00011636444105533883,-1.0474021434783936,3.36,-1.049799919128418,0.002,0.0
140,-0.00011667115177260712,-1.0458685159683228,3.384,-1.0479999780654907,0.002,0.0
141,-0.00011691651889123023,-1.0440282821655273,3.408,-1.046199917793274,0.002,0.0
142,-0.00011624176113400608,-1.042494773864746,3.432,-1.0443999767303467,0.002,0.0
143,-0.00011654846457531676,-1.0403478145599365,3.456,-1.0425999164581299,0.002,0.0
144,-0.00011587371409405023,-1.0385075807571411,3.48,-1.0407999753952026,0.002,0.0
145,-0.00011581237049540505,-1.0366673469543457,3.504,-1.0389999151229858,0.002,0.0
146,-0.00011495359649416059,-1.0348271131515503,3.528,-1.0371999740600586,0.002,0.0
147,-0.0001146468857768923,-1.0336003303527832,3.552,-1.0353999137878418,0.002,0.0
148,-0.00011403347889427096,-1.0314533710479736,3.576,-1.0335999727249146,0.002,0.0
149,-0.00011335872113704681,-1.029306411743164,3.6,-1.0317999124526978,0.002,0.0
150,-0.00011286799417575821,-1.0277729034423828,3.624,-1.0299999713897705,0.002,0.0
151,-0.00011170250945724547,-1.0262393951416016,3.648,-1.0281999111175537,0.002,0.0
152,-0.00011127311881864443,-1.024092435836792,3.672,-1.0263999700546265,0.002,0.0
153,-0.00011004629050148651,-1.0222522020339966,3.696,-1.0245999097824097,0.002,0.0
154,-0.00010937154002021998,-1.0207186937332153,3.72,-1.0227999687194824,0.002,0.0
155,-0.00010808337538037449,-1.0191850662231445,3.744,-1.0209999084472656,0.002,0.0
156,-0.00010697922698454931,-1.0170382261276245,3.768,-1.0191999673843384,0.002,0.0
157,-0.00010342143650632352,-1.014891266822815,3.792,-1.0173999071121216,0.002,0.0
158,-0.00010133583418792114,-1.0130510330200195,3.816,-1.0155999660491943,0.002,0.0
159,-9.986364602809772e-05,-1.0115174055099487,3.84,-1.0137999057769775,0.002,0.0
160,-9.73486530710943e-05,-1.0096771717071533,3.864,-1.0119999647140503,0.002,0.0
161,-9.624450467526913e-05,-1.008143663406372,3.888,-1.0101999044418335,0.002,0.0
162,-9.415890235686675e-05,-1.0059967041015625,3.912,-1.0083999633789062,0.002,0.0
163,-9.2993417638354e-05,-1.0044631958007812,3.936,-1.0065999031066895,0.002,0.0
164,-9.14598858798854e-05,-1.0023162364959717,3.96,-1.0047999620437622,0.002,0.0
165,-9.02330648386851e-05,-1.0007827281951904,3.984,-1.0029999017715454,0.002,0.0
166,-8.925160364015028e-05,-0.9992492198944092,4.008,-1.0011999607086182,0.002,0.0
167,-8.802477532299235e-05,-0.9974089860916138,4.032,-0.9993999600410461,0.002,0.0
168,-8.784075180301443e-05,-0.9952620267868042,4.056,-0.9975999593734741,0.002,0.0
169,-8.704332140041515e-05,-0.9931150674819946,4.08,-0.9957999587059021,0.002,0.0
170,-8.796343900030479e-05,-0.9918882250785828,4.104,-0.9939999580383301,0.002,0.0
171,-8.790209540165961e-05,-0.989741325378418,4.128,-0.9921999573707581,0.002,0.0
172,-8.827014244161546e-05,-0.9885144829750061,4.152,-0.990399956703186,0.002,0.0
173,-8.790209540165961e-05,-0.9863675236701965,4.176,-0.988599956035614,0.002,0.0
174,-8.747270476305857e-05,-0.9845272898674011,4.2,-0.986799955368042,0.002,0.0
175,-8.722734492039308e-05,-0.9823803305625916,4.224,-0.98499995470047,0.002,0.0
176,-8.642990724183619e-05,-0.9811535477638245,4.248,-0.983199954032898,0.002,0.0
177,-8.642990724183619e-05,-0.9790065884590149,4.272,-0.9813999533653259,0.002,0.0
178,-8.53871024446562e-05,-0.9771663546562195,4.296,-0.9795999526977539,0.002,0.0
179,-8.514173532603309e-05,-0.9756327867507935,4.32,-0.9777999520301819,0.002,0.0
180,-8.40989378048107e-05,-0.9740992784500122,4.344,-0.9759999513626099,0.002,0.0
181,-8.360820356756449e-05,-0.9719523191452026,4.368,-0.9741999506950378,0.002,0.0
182,-8.287210948765278e-05,-0.9704188108444214,4.392,-0.9723999500274658,0.002,0.0
183,-8.207467180909589e-05,-0.9679651260375977,4.416,-0.9705999493598938,0.002,0.0
184,-8.158394484780729e-05,-0.9664316177368164,4.44,-0.9687999486923218,0.002,0.0
185,-8.017309301067144e-05,-0.9648981094360352,4.464,-0.9669999480247498,0.002,0.0
186,-7.974370964802802e-05,-0.9630578756332397,4.488,-0.9651999473571777,0.002,0.0
187,-7.827151421224698e-05,-0.9615243077278137,4.512,-0.9633999466896057,0.002,0.0
188,-7.594055205117911e-05,-0.9593773484230042,4.536,-0.9615999460220337,0.002,0.0
189,-7.354823901550844e-05,-0.9575371146202087,4.56,-0.9597999453544617,0.002,0.0
190,-7.207605085568503e-05,-0.9560036063194275,4.584,-0.9579999446868896,0.002,0.0
191,-7.048117549857125e-05,-0.9538566470146179,4.608,-0.9561999440193176,0.002,0.0
192,-6.85795967001468e-05,-0.9520164132118225,4.632,-0.9543999433517456,0.002,0.0
193,-6.75367919029668e-05,-0.9507895708084106,4.656,-0.9525999426841736,0.002,0.0
194,-6.581923662452027e-05,-0.9486426711082458,4.68,-0.9507999420166016,0.002,0.0
195,-6.508314254460856e-05,-0.9468024373054504,4.704,-0.9489999413490295,0.002,0.0
196,-6.34882744634524e-05,-0.9446554780006409,4.728,-0.9471999406814575,0.002,0.0
197,-6.281351670622826e-05,-0.9437353610992432,4.752,-0.9453999400138855,0.002,0.0
198,-6.19547427049838e-05,-0.9412816762924194,4.776,-0.9435999393463135,0.002,0.0
199,-6.127998494775966e-05,-0.9397481679916382,4.8,-0.9417999386787415,0.002,0.0
200,-6.115730502642691e-05,-0.9379079341888428,4.824,-0.9399999380111694,0.002,0.0
201,-6.054389086784795e-05,-0.9360677003860474,4.848,-0.9381999373435974,0.002,0.0
202,-6.152535206638277e-05,-0.9336140155792236,4.872,-0.9363999366760254,0.002,0.0
203,-6.146400846773759e-05,-0.9323872327804565,4.896,-0.9345999360084534,0.002,0.0
204,-6.189339910633862e-05,-0.930240273475647,4.92,-0.9327999353408813,0.002,0.0
205,-6.152535206638277e-05,-0.9287067651748657,4.944,-0.9309999346733093,0.002,0.0
206,-6.152535206638277e-05,-0.9271731972694397,4.968,-0.9291999340057373,0.002,0.0
207,-6.134132854640484e-05,-0.9250262379646301,4.992,-0.9273999333381653,0.002,0.0
208,-6.109596142778173e-05,-0.9231860041618347,5.016,-0.9255999326705933,0.002,0.0
209,-6.121864134911448e-05,-0.9213457703590393,5.04,-0.9237999320030212,0.002,0.0
210,-6.0421207308536395e-05,-0.9195055365562439,5.064,-0.9219999313354492,0.002,0.0
211,-6.06665744271595e-05,-0.9179720282554626,5.088,-0.9201999306678772,0.002,0.0
212,-5.9869136748602614e-05,-0.9164384603500366,5.112,-0.9183999300003052,0.002,0.0
213,-6.0114500229246914e-05,-0.9145982265472412,5.136,-0.9165999293327332,0.002,0.0
214,-5.950108970864676e-05,-0.9127579927444458,5.16,-0.9147999882698059,0.002,0.0
215,-5.931706618866883e-05,-0.910611093044281,5.184,-0.9129999876022339,0.002,0.0
216,-5.931706618866883e-05,-0.909077525138855,5.208,-0.9111999869346619,0.002,0.0
217,-5.851962851011194e-05,-0.9075440168380737,5.232,-0.9093999862670898,0.002,0.0
218,-5.870365203008987e-05,-0.9057037830352783,5.256,-0.9075999855995178,0.002,0.0
219,-5.7722190831555054e-05,-0.9032500982284546,5.28,-0.9057999849319458,0.002,0.0
220,-5.692475679097697e-05,-0.9020233154296875,5.304,-0.9039999842643738,0.002,0.0
221,-5.422574031399563e-05,-0.8998763561248779,5.328,-0.9021999835968018,0.002,0.0
222,-5.373500971472822e-05,-0.8983427882194519,5.352,-0.9003999829292297,0.002,0.0
223,-5.2262817916925997e-05,-0.8965025544166565,5.376,-0.8985999822616577,0.002,0.0
224,-5.109733319841325e-05,-0.8946623206138611,5.4,-0.8967999815940857,0.002,0.0
225,-5.0361239118501544e-05,-0.8928220868110657,5.424,-0.8949999809265137,0.002,0.0
226,-4.9073074478656054e-05,-0.8909818530082703,5.448,-0.8931999802589417,0.002,0.0
227,-4.876636739936657e-05,-0.889448344707489,5.472,-0.8913999795913696,0.002,0.0
228,-4.7478199121542275e-05,-0.8873013854026794,5.496,-0.8895999789237976,0.002,0.0
229,-4.735551920020953e-05,-0.8851544260978699,5.52,-0.8877999782562256,0.002,0.0
230,-4.655808152165264e-05,-0.8836209177970886,5.544,-0.8859999775886536,0.002,0.0
231,-4.6435397962341085e-05,-0.8820873498916626,5.568,-0.8841999769210815,0.002,0.0
232,-4.6190034481696784e-05,-0.8802471160888672,5.592,-0.8823999762535095,0.002,0.0
233,-4.6128690883051604e-05,-0.8784068822860718,5.616,-0.8805999755859375,0.002,0.0
234,-4.711015208158642e-05,-0.8765666484832764,5.64,-0.8787999749183655,0.002,0.0
235,-4.735551920020953e-05,-0.874726414680481,5.664,-0.8769999742507935,0.002,0.0
236,-4.809161328012124e-05,-0.8731929063796997,5.688,-0.8751999735832214,0.002,0.0
237,-4.772356624016538e-05,-0.8713526725769043,5.712,-0.8733999729156494,0.002,0.0
238,-4.790758976014331e-05,-0.8692057132720947,5.736,-0.8715999722480774,0.002,0.0
239,-4.7478199121542275e-05,-0.8676722049713135,5.76,-0.8697999715805054,0.002,0.0
240,-4.74168591608759e-05,-0.8652185201644897,5.784,-0.8679999709129333,0.002,0.0
