,current,potential,elapsed_time,applied_potential,current_range,segment
0,-5.453852645587176e-05,-1.0740855932235718,1.0,-1.0747334957122803,0.0002,0.0
1,-3.447380004217848e-05,-1.0691782236099243,2.0,-1.0697335004806519,0.0002,0.0
2,-2.7309139113640413e-05,-1.0639642477035522,3.0,-1.0647335052490234,0.0002,0.0
3,-2.3597991457791068e-05,-1.0590568780899048,4.0,-1.059733510017395,0.0002,0.0
4,-2.1076864868518896e-05,-1.0541496276855469,5.0,-1.0547335147857666,0.0002,0.0
5,-1.9267297830083407e-05,-1.0489356517791748,6.0,-1.0497335195541382,0.0002,0.0
6,-1.7739899703883566e-05,-1.0440282821655273,7.0,-1.0447335243225098,0.0002,0.0
7,-1.635972148505971e-05,-1.0391210317611694,8.0,-1.0397335290908813,0.0002,0.0
8,-1.5261713997460902e-05,-1.0339070558547974,9.0,-1.034733533859253,0.0002,0.0
9,-1.4274119166657329e-05,-1.02899968624115,10.0,-1.0297335386276245,0.0002,0.0
10,-1.324971981375711e-05,-1.024092435836792,11.0,-1.024733543395996,0.0002,0.0
11,-1.2390942174533848e-05,-1.0191850662231445,12.0,-1.0197335481643677,0.0002,0.0
12,-1.1648712643363979e-05,-1.0142778158187866,13.0,-1.0147335529327393,0.0002,0.0
13,-1.0851275874301791e-05,-1.0090638399124146,14.0,-1.0097334384918213,0.0002,0.0
14,-1.0133583600691054e-05,-1.004156470298767,15.0,-1.0047334432601929,0.0002,0.0
15,-9.563109415466897e-06,-0.9992492198944092,16.0,-0.9997335076332092,0.0002,0.0
16,-8.961965249909554e-06,-0.9940351843833923,17.0,-0.9947335124015808,0.0002,0.0
17,-8.366954716620967e-06,-0.9891278743743896,18.0,-0.9897335171699524,0.0002,0.0
18,-7.906895007181447e-06,-0.984220564365387,19.0,-0.984733521938324,0.0002,0.0
19,-7.459103926521493e-06,-0.9790065884590149,20.0,-0.9797335267066956,0.0002,0.0
20,-6.980641956033651e-06,-0.9740992784500122,21.0,-0.9747334718704224,0.0002,0.0
21,-6.6125944613304455e-06,-0.9688853025436401,22.0,-0.969733476638794,0.0002,0.0
22,-6.293620117503451e-06,-0.9639779925346375,23.0,-0.9647334814071655,0.0002,0.0
23,-5.894901732972357e-06,-0.9590706825256348,24.0,-0.9597334861755371,0.0002,0.0
24,-5.55752467334969e-06,-0.9541633725166321,25.0,-0.9547334909439087,0.0002,0.0
25,-5.306025741447229e-06,-0.9489493370056152,26.0,-0.9497334957122803,0.0002,0.0
26,-4.987050942872884e-06,-0.9440420866012573,27.0,-0.9447335004806519,0.0002,0.0
27,-4.6680761442985386e-06,-0.9391347765922546,28.0,-0.9397335052490234,0.0002,0.0
28,-4.447247647476615e-06,-0.9339207410812378,29.0,-0.934733510017395,0.0002,0.0
29,-4.177345999778481e-06,-0.9290134310722351,30.0,-0.9297335147857666,0.0002,0.0
30,-3.858371655951487e-06,-0.9241061210632324,31.0,-0.9247335195541382,0.0002,0.0
31,-3.6314088447397808e-06,-0.9188921451568604,32.0,-0.9197335243225098,0.0002,0.0
32,-3.416714434933965e-06,-0.9139848351478577,33.0,-0.9147335290908813,0.0002,0.0
33,-3.0977398637332954e-06,-0.909077525138855,34.0,-0.9097334742546082,0.0002,0.0
34,-2.8523747914732667e-06,-0.9038635492324829,35.0,-0.9047334790229797,0.0002,0.0
35,-2.637680381667451e-06,-0.8989562392234802,36.0,-0.8997334837913513,0.0002,0.0
36,-2.3248398974828888e-06,-0.8940489292144775,37.0,-0.8947334885597229,0.0002,0.0
37,-2.0304019017203245e-06,-0.8891416192054749,38.0,-0.8897334933280945,0.0002,0.0
38,-1.8095732912115636e-06,-0.8839276432991028,39.0,-0.8847334980964661,0.0002,0.0
39,-1.4967328070270014e-06,-0.8790203332901001,40.0,-0.8797335028648376,0.0002,0.0
40,-1.1348192856530659e-06,-0.8741130232810974,41.0,-0.8747335076332092,0.0002,0.0
41,-8.403812330470828e-07,-0.8692057132720947,42.0,-0.8697335124015808,0.0002,0.0
42,-5.030042871112528e-07,-0.8639916777610779,43.0,-0.8647335171699524,0.0002,0.0
43,-5.5213014604760247e-08,-0.85908442735672,44.0,-0.859733521938324,0.0002,0.0
44,3.5577349422055704e-07,-0.8541771173477173,45.0,-0.8547335267066956,0.0002,0.0
45,8.035647169890581e-07,-0.8492698073387146,46.0,-0.8497334718704224,0.0002,0.0
46,1.3985750229039695e-06,-0.8440557718276978,47.0,-0.844733476638794,0.0002,0.0
47,2.005853502851096e-06,-0.8391484618186951,48.0,-0.8397334814071655,0.0002,0.0
48,2.6192662971880054e-06,-0.8342412114143372,49.0,-0.8347334861755371,0.0002,0.0
49,3.3676296880003065e-06,-0.8290271759033203,50.0,-0.8297334909439087,0.0002,0.0
50,4.165066002315143e-06,-0.8241198658943176,51.0,-0.8247334957122803,0.0002,0.0
51,4.962502771377331e-06,-0.8189058899879456,52.0,-0.8197335004806519,0.0002,0.0
52,5.839682671648916e-06,-0.814305305480957,53.0,-0.8147335052490234,0.0002,0.0
53,6.7966066126246005e-06,-0.8090912699699402,54.0,-0.809733510017395,0.0002,0.0
54,7.747396011836827e-06,-0.8041839599609375,55.0,-0.8047335147857666,0.0002,0.0
55,8.741124474909157e-06,-0.7989699840545654,56.0,-0.7997335195541382,0.0002,0.0
56,9.839133781497367e-06,-0.7940626740455627,57.0,-0.7947335243225098,0.0002,0.0
57,1.0955544894386549e-05,-0.7891553640365601,58.0,-0.7897335290908813,0.0002,0.0
58,1.2108760529372375e-05,-0.7839413285255432,59.0,-0.7847334742546082,0.0002,0.0
59,1.3415329704002943e-05,-0.7790340185165405,60.0,-0.7797334790229797,0.0002,0.0
60,1.4801642464590259e-05,-0.7738200426101685,61.0,-0.7747334837913513,0.0002,0.0
61,1.6267698811134323e-05,-0.7689127326011658,62.0,-0.7697334885597229,0.0002,0.0
62,1.7715352441882715e-05,-0.7640054225921631,63.0,-0.7647334933280945,0.0002,0.0
63,1.9322493244544603e-05,-0.7590981125831604,64.0,-0.7597334980964661,0.0002,0.0
64,2.091123315040022e-05,-0.7541908621788025,65.0,-0.7547335028648376,0.0002,0.0
65,2.267172749270685e-05,-0.7489768266677856,66.0,-0.7497335076332092,0.0002,0.0
66,2.465918441885151e-05,-0.744069516658783,67.0,-0.7447335124015808,0.0002,0.0
67,2.651782415341586e-05,-0.7391622066497803,68.0,-0.7397335171699524,0.0002,0.0
68,2.8897866286570206e-05,-0.7339482307434082,69.0,-0.734733521938324,0.0002,0.0
69,3.0983468604972586e-05,-0.7290409207344055,70.0,-0.7297335267066956,0.0002,0.0
70,3.2989326427923515e-05,-0.7241336107254028,71.0,-0.7247335314750671,0.0002,0.0
71,3.516081051202491e-05,-0.7192263007164001,72.0,-0.719733476638794,0.0002,0.0
72,3.757152080652304e-05,-0.7140123248100281,73.0,-0.7147334814071655,0.0002,0.0
73,4.00803801312577e-05,-0.7091050148010254,74.0,-0.7097334861755371,0.0002,0.0
74,4.2448151361895725e-05,-0.7038909792900085,75.0,-0.7047334909439087,0.0002,0.0
75,4.494473978411406e-05,-0.6989836692810059,76.0,-0.6997334957122803,0.0002,0.0
76,4.750267180497758e-05,-0.694076418876648,77.0,-0.6947335004806519,0.0002,0.0
77,5.029983367421664e-05,-0.6891691088676453,78.0,-0.6897335052490234,0.0002,0.0
78,5.3078594646649435e-05,-0.6839550733566284,79.0,-0.684733510017395,0.0002,0.0
79,5.5961634643608704e-05,-0.6790477633476257,80.0,-0.6797335147857666,0.0002,0.0
80,5.8856941905105487e-05,-0.674140453338623,81.0,-0.6747335195541382,0.0002,0.0
81,6.172157736727968e-05,-0.668926477432251,82.0,-0.6697335243225098,0.0002,0.0
82,6.456781557062641e-05,-0.6640191674232483,83.0,-0.6647335290908813,0.0002,0.0
83,6.729750020895153e-05,-0.6591118574142456,84.0,-0.6597335338592529,0.0002,0.0
84,7.015600567683578e-05,-0.6542045474052429,85.0,-0.6547334790229797,0.0002,0.0
85,7.29286257410422e-05,-0.6489905714988708,86.0,-0.6497334837913513,0.0002,0.0
86,7.584234117530286e-05,-0.6440832614898682,87.0,-0.6447334885597229,0.0002,0.0
87,7.874991570133716e-05,-0.6391759514808655,88.0,-0.6397334933280945,0.0002,0.0
88,8.166362385964021e-05,-0.6339619755744934,89.0,-0.6347334980964661,0.0002,0.0
89,8.45159956952557e-05,-0.6290546655654907,90.0,-0.6297335028648376,0.0002,0.0
90,8.745423838263378e-05,-0.624147355556488,91.0,-0.6247335076332092,0.0002,0.0
91,9.038022108143196e-05,-0.6189333200454712,92.0,-0.6197335124015808,0.0002,0.0
92,9.333073103334755e-05,-0.6140260100364685,93.0,-0.6147335171699524,0.0002,0.0
93,9.6158568339888e-05,-0.6091187596321106,94.0,-0.609733521938324,0.0002,0.0
94,9.913362009683624e-05,-0.6042114496231079,95.0,-0.6047335267066956,0.0002,0.0
95,0.00010199825192103162,-0.5989974141120911,96.0,-0.5997335314750671,0.0002,0.0
96,0.0001048935591825284,-0.5940901041030884,97.0,-0.594733476638794,0.0002,0.0
97,0.0001077888737199828,-0.5888761281967163,98.0,-0.5897334814071655,0.0002,0.0
98,0.00011078846000600606,-0.5839688181877136,99.0,-0.5847334861755371,0.0002,0.0
99,0.00011370216816430911,-0.5790615081787109,100.0,-0.5797334909439087,0.0002,0.0
100,0.00011663428449537605,-0.5741541981697083,101.0,-0.5747334957122803,0.0002,0.0
