,current,potential,elapsed_time,applied_potential,current_range,segment
0,-7.487928814953193e-05,-1.0167315006256104,1.0,-1.0173792839050293,0.0002,0.0
1,-6.608908734051511e-05,-1.011824131011963,2.0,-1.0123792886734009,0.0002,0.0
2,-6.049476360203698e-05,-1.0066101551055908,3.0,-1.0073792934417725,0.0002,0.0
3,-5.577148840529844e-05,-1.001702904701233,4.0,-1.002379298210144,0.0002,0.0
4,-5.1796570915030316e-05,-0.9967955350875854,5.0,-0.9973793029785156,0.0002,0.0
5,-4.849641118198633e-05,-0.9918882250785828,6.0,-0.9923793077468872,0.0002,0.0
6,-4.535574043984525e-05,-0.9869809746742249,7.0,-0.9873793125152588,0.0002,0.0
7,-4.2632185795810074e-05,-0.981766939163208,8.0,-0.9823792576789856,0.0002,0.0
8,-4.0399365389021114e-05,-0.9768596291542053,9.0,-0.9773792624473572,0.0002,0.0
9,-3.829535853583366e-05,-0.9719523191452026,10.0,-0.9723792672157288,0.0002,0.0
10,-3.628950071288273e-05,-0.9667383432388306,11.0,-0.9673792719841003,0.0002,0.0
11,-3.4682358091231436e-05,-0.9618310332298279,12.0,-0.9623792767524719,0.0002,0.0
12,-3.322243719594553e-05,-0.956616997718811,13.0,-0.9573792815208435,0.0002,0.0
13,-3.160916094202548e-05,-0.9517097473144531,14.0,-0.9523792862892151,0.0002,0.0
14,-3.0204446375137195e-05,-0.9468024373054504,15.0,-0.9473792910575867,0.0002,0.0
15,-2.9008291676291265e-05,-0.9418951272964478,16.0,-0.9423792958259583,0.0002,0.0
16,-2.767105252132751e-05,-0.9366810917854309,17.0,-0.9373793005943298,0.0002,0.0
17,-2.6481031454750337e-05,-0.9317737817764282,18.0,-0.9323793053627014,0.0002,0.0
18,-2.5548644771333784e-05,-0.9268665313720703,19.0,-0.927379310131073,0.0002,0.0
19,-2.4438366381218657e-05,-0.9216524958610535,20.0,-0.9223793148994446,0.0002,0.0
20,-2.334035889361985e-05,-0.9167451858520508,21.0,-0.9173792600631714,0.0002,0.0
21,-2.2536787582794204e-05,-0.9118378758430481,22.0,-0.912379264831543,0.0002,0.0
22,-2.1806827135151252e-05,-0.906623899936676,23.0,-0.9073792695999146,0.0002,0.0
23,-2.0880574084003456e-05,-0.9017165899276733,24.0,-0.9023792743682861,0.0002,0.0
24,-2.010153912124224e-05,-0.8968092799186707,25.0,-0.8973792791366577,0.0002,0.0
25,-1.9328639609739184e-05,-0.8915953040122986,26.0,-0.8923792839050293,0.0002,0.0
26,-1.84146538231289e-05,-0.8866879940032959,27.0,-0.8873792886734009,0.0002,0.0
27,-1.755587618390564e-05,-0.8817806839942932,28.0,-0.8823792934417725,0.0002,0.0
28,-1.6776843040133826e-05,-0.8765666484832764,29.0,-0.877379298210144,0.0002,0.0
29,-1.5807650925125927e-05,-0.8716593384742737,30.0,-0.8723793029785156,0.0002,0.0
30,-1.488139787397813e-05,-0.8667520880699158,31.0,-0.8673793077468872,0.0002,0.0
31,-1.416983923263615e-05,-0.8618447780609131,32.0,-0.8623793125152588,0.0002,0.0
32,-1.3335597941477317e-05,-0.8569374680519104,33.0,-0.8573793172836304,0.0002,0.0
33,-1.238480763277039e-05,-0.8517234325408936,34.0,-0.8523792624473572,0.0002,0.0
34,-1.1679383533191867e-05,-0.8468161225318909,35.0,-0.8473792672157288,0.0002,0.0
35,-1.0967824891849887e-05,-0.841908872127533,36.0,-0.8423792719841003,0.0002,0.0
36,-1.0017034583142959e-05,-0.8366948366165161,37.0,-0.8373792767524719,0.0002,0.0
37,-9.12145242182305e-06,-0.8317875266075134,38.0,-0.8323792815208435,0.0002,0.0
38,-8.299479304696433e-06,-0.8268802165985107,39.0,-0.8273792862892151,0.0002,0.0
39,-7.275080406543566e-06,-0.8216662406921387,40.0,-0.8223792910575867,0.0002,0.0
40,-6.262949227675563e-06,-0.816758930683136,41.0,-0.8173792958259583,0.0002,0.0
41,-5.3121598284633365e-06,-0.8118516206741333,42.0,-0.8123793005943298,0.0002,0.0
42,-4.220285063638585e-06,-0.8066376447677612,43.0,-0.8073793053627014,0.0002,0.0
43,-3.060935114262975e-06,-0.8017303347587585,44.0,-0.802379310131073,0.0002,0.0
44,-2.1040114006609656e-06,-0.7968230247497559,45.0,-0.7973793148994446,0.0002,0.0
45,-1.0918804491666378e-06,-0.7919157147407532,46.0,-0.7923792600631714,0.0002,0.0
46,8.587190336584172e-08,-0.7867016792297363,47.0,-0.787379264831543,0.0002,0.0
47,1.1593440376600483e-06,-0.7817944288253784,48.0,-0.7823792695999146,0.0002,0.0
48,2.1960115645924816e-06,-0.7765803933143616,49.0,-0.7773792743682861,0.0002,0.0
49,3.3553615139680915e-06,-0.7716730833053589,50.0,-0.7723792791366577,0.0002,0.0
50,4.539248038781807e-06,-0.7667657732963562,51.0,-0.7673792839050293,0.0002,0.0
51,5.618854174826993e-06,-0.7618585228919983,52.0,-0.7623792886734009,0.0002,0.0
52,6.876350198581349e-06,-0.7569512128829956,53.0,-0.7573792934417725,0.0002,0.0
53,8.256528417405207e-06,-0.7517371773719788,54.0,-0.752379298210144,0.0002,0.0
54,9.538561243971344e-06,-0.7468298673629761,55.0,-0.7473793029785156,0.0002,0.0
55,1.0894203114730772e-05,-0.7419225573539734,56.0,-0.7423793077468872,0.0002,0.0
56,1.2409333066898398e-05,-0.7367085814476013,57.0,-0.7373793125152588,0.0002,0.0
57,1.3869254871679004e-05,-0.7318012714385986,58.0,-0.7323793172836304,0.0002,0.0
58,1.5390518456115387e-05,-0.726893961429596,59.0,-0.7273792624473572,0.0002,0.0
59,1.716328006295953e-05,-0.7216799855232239,60.0,-0.7223792672157288,0.0002,0.0
60,1.8923774405266158e-05,-0.7167726755142212,61.0,-0.7173792719841003,0.0002,0.0
61,2.068427056656219e-05,-0.7118653655052185,62.0,-0.7123792767524719,0.0002,0.0
62,2.2634922061115503e-05,-0.7066513299942017,63.0,-0.7073792815208435,0.0002,0.0
63,2.4769598894636147e-05,-0.7017440795898438,64.0,-0.7023792862892151,0.0002,0.0
64,2.6879737561102957e-05,-0.6968367695808411,65.0,-0.6973792910575867,0.0002,0.0
65,2.898374259530101e-05,-0.6916227340698242,66.0,-0.6923792958259583,0.0002,0.0
66,3.124110298813321e-05,-0.6867154240608215,67.0,-0.6873793005943298,0.0002,0.0
67,3.3529129723319784e-05,-0.6818081140518188,68.0,-0.6823793053627014,0.0002,0.0
68,3.5823293728753924e-05,-0.6769008636474609,69.0,-0.677379310131073,0.0002,0.0
69,3.8227874028962106e-05,-0.6716868281364441,70.0,-0.6723793148994446,0.0002,0.0
70,4.0620183426653966e-05,-0.6667795181274414,71.0,-0.6673793196678162,0.0002,0.0
71,4.30738327850122e-05,-0.6618722081184387,72.0,-0.662379264831543,0.0002,0.0
72,4.561336027109064e-05,-0.6566582322120667,73.0,-0.6573792695999146,0.0002,0.0
73,4.807314689969644e-05,-0.651750922203064,74.0,-0.6523792743682861,0.0002,0.0
74,5.058200258645229e-05,-0.6468436121940613,75.0,-0.6473792791366577,0.0002,0.0
75,5.3195140935713425e-05,-0.6416296362876892,76.0,-0.6423792839050293,0.0002,0.0
76,5.5734672059770674e-05,-0.6367223262786865,77.0,-0.6373792886734009,0.0002,0.0
77,5.831100497744046e-05,-0.6318150162696838,78.0,-0.6323792934417725,0.0002,0.0
78,6.0973216022830456e-05,-0.626600980758667,79.0,-0.627379298210144,0.0002,0.0
79,6.362928979797289e-05,-0.6216936707496643,80.0,-0.6223793029785156,0.0002,0.0
80,6.6217893618159e-05,-0.6167864203453064,81.0,-0.6173793077468872,0.0002,0.0
81,6.875742110423744e-05,-0.6115723848342896,82.0,-0.6123793125152588,0.0002,0.0
82,7.148710574256256e-05,-0.6066650748252869,83.0,-0.6073793172836304,0.0002,0.0
83,7.419838948408142e-05,-0.6017577648162842,84.0,-0.602379322052002,0.0002,0.0
84,7.68483369029127e-05,-0.5968504548072815,85.0,-0.5973792672157288,0.0002,0.0
85,7.963936513988301e-05,-0.5916364789009094,86.0,-0.5923792719841003,0.0002,0.0
86,8.243652700912207e-05,-0.5867291688919067,87.0,-0.5873792767524719,0.0002,0.0
87,8.527049067197368e-05,-0.581821858882904,88.0,-0.5823792815208435,0.0002,0.0
88,8.809218707028776e-05,-0.576607882976532,89.0,-0.5773792862892151,0.0002,0.0
89,9.091389074455947e-05,-0.5717005729675293,90.0,-0.5723792910575867,0.0002,0.0
90,9.376625530421734e-05,-0.5667932629585266,91.0,-0.5673792958259583,0.0002,0.0
91,9.666156256571412e-05,-0.5618859529495239,92.0,-0.5623793005943298,0.0002,0.0
92,9.95568698272109e-05,-0.5566719770431519,93.0,-0.5573793053627014,0.0002,0.0
93,0.00010251352068735287,-0.5517646670341492,94.0,-0.552379310131073,0.0002,0.0
94,0.00010539042705204338,-0.5468573570251465,95.0,-0.5473793148994446,0.0002,0.0
95,0.00010846362420124933,-0.5416433215141296,96.0,-0.5423793196678162,0.0002,0.0
96,0.00011151228682138026,-0.536736011505127,97.0,-0.537379264831543,0.0002,0.0
97,0.00011465296120150015,-0.531828761100769,98.0,-0.5323792695999146,0.0002,0.0
98,0.00011765868111979216,-0.5269214510917664,99.0,-0.5273792743682861,0.0002,0.0
99,0.00012067053467035294,-0.5217074155807495,100.0,-0.5223792791366577,0.0002,0.0
100,0.00012389094626996666,-0.5168001055717468,101.0,-0.5173792839050293,0.0002,0.0
