,current,potential,elapsed_time,applied_potential,current_range,segment
0,-0.0002856663486454636,-1.29859459400177,0.017333,-1.2999999523162842,0.002,0.0
1,-0.00027934819809161127,-1.2970610857009888,0.034666,-1.298699975013733,0.002,0.0
2,-0.0002762197982519865,-1.2958341836929321,0.051999,-1.2973999977111816,0.002,0.0
3,-0.0002740115160122514,-1.2943006753921509,0.069332,-1.2960999011993408,0.002,0.0
4,-0.0002719259064178914,-1.2930738925933838,0.086665,-1.2947999238967896,0.002,0.0
5,-0.0002700856712181121,-1.2918469905853271,0.103998,-1.2934999465942383,0.002,0.0
6,-0.00026836810866370797,-1.29062020778656,0.121331,-1.292199969291687,0.002,0.0
7,-0.00026665054610930383,-1.2887799739837646,0.138664,-1.2908999919891357,0.002,0.0
8,-0.0002651783579494804,-1.2878599166870117,0.155997,-1.289599895477295,0.002,0.0
9,-0.000263706169789657,-1.286633014678955,0.17333,-1.2882999181747437,0.002,0.0
10,-0.0002624180051498115,-1.285406231880188,0.190663,-1.2869999408721924,0.002,0.0
11,-0.0002610071678645909,-1.284179449081421,0.207996,-1.2856999635696411,0.002,0.0
12,-0.00025971897412091494,-1.28264582157135,0.225329,-1.2843999862670898,0.002,0.0
13,-0.00025849216035567224,-1.2811123132705688,0.242662,-1.2831000089645386,0.002,0.0
14,-0.0002573266683612019,-1.2804988622665405,0.259995,-1.2817999124526978,0.002,0.0
15,-0.000256161205470562,-1.2786586284637451,0.277328,-1.2804999351501465,0.002,0.0
16,-0.0002550570643506944,-1.277431845664978,0.294661,-1.2791999578475952,0.002,0.0
17,-0.00025389157235622406,-1.2758983373641968,0.311994,-1.277899980545044,0.002,0.0
18,-0.0002527260803617537,-1.2749781608581543,0.329327,-1.2766000032424927,0.002,0.0
19,-0.00025174461188726127,-1.2731379270553589,0.34666,-1.2752999067306519,0.002,0.0
20,-0.0002506404707673937,-1.272217869758606,0.363993,-1.2739999294281006,0.002,0.0
21,-0.00024953632964752614,-1.2709909677505493,0.381326,-1.2726999521255493,0.002,0.0
22,-0.00024855489027686417,-1.269457459449768,0.398659,-1.271399974822998,0.002,0.0
23,-0.0002473893982823938,-1.268230676651001,0.415992,-1.2700999975204468,0.002,0.0
24,-0.00024628525716252625,-1.2670038938522339,0.433325,-1.268799901008606,0.002,0.0
25,-0.0002451811160426587,-1.2657769918441772,0.450658,-1.2674999237060547,0.002,0.0
26,-0.0002440769603708759,-1.264243483543396,0.467991,-1.2661999464035034,0.002,0.0
27,-0.00024285013205371797,-1.263016700744629,0.485324,-1.2648999691009521,0.002,0.0
28,-0.0002418073418084532,-1.261483073234558,0.502657,-1.2635999917984009,0.002,0.0
29,-0.00024070320068858564,-1.2605630159378052,0.51999,-1.26229989528656,0.002,0.0
30,-0.0002397217322140932,-1.2587227821350098,0.537323,-1.2609999179840088,0.002,0.0
31,-0.00023843356757424772,-1.2581093311309814,0.554656,-1.2596999406814575,0.002,0.0
32,-0.00023714540293440223,-1.2565758228302002,0.571989,-1.2583999633789062,0.002,0.0
33,-0.0002359185746172443,-1.255349040031433,0.589322,-1.257099986076355,0.002,0.0
34,-0.00023475309717468917,-1.2535088062286377,0.606655,-1.2558000087738037,0.002,0.0
35,-0.00023352626885753125,-1.2525886297225952,0.623988,-1.254499912261963,0.002,0.0
36,-0.0002323607768630609,-1.2516685724258423,0.641321,-1.2531999349594116,0.002,0.0
37,-0.0002311339630978182,-1.2498283386230469,0.658654,-1.2518999576568604,0.002,0.0
38,-0.0002300911583006382,-1.248294711112976,0.675987,-1.250599980354309,0.002,0.0
39,-0.00022861897014081478,-1.2473746538162231,0.69332,-1.2493000030517578,0.002,0.0
40,-0.00022751482902094722,-1.2464544773101807,0.710653,-1.247999906539917,0.002,0.0
41,-0.00022641067334916443,-1.2446142435073853,0.727986,-1.2466999292373657,0.002,0.0
42,-0.00022536788310389966,-1.2433874607086182,0.745319,-1.2453999519348145,0.002,0.0
43,-0.0002242023911094293,-1.242160677909851,0.762652,-1.2440999746322632,0.002,0.0
44,-0.0002232209371868521,-1.2409337759017944,0.779985,-1.242799997329712,0.002,0.0
45,-0.0002219327725470066,-1.2394002676010132,0.797318,-1.241499900817871,0.002,0.0
46,-0.00022095130407251418,-1.238173484802246,0.814651,-1.2401999235153198,0.002,0.0
47,-0.00021868168551009148,-1.2357197999954224,0.849317,-1.2375999689102173,0.002,0.0
48,-0.00021770021703559905,-1.2347996234893799,0.86665,-1.236299991607666,0.002,0.0
49,-0.0002165960759157315,-1.2329593896865845,0.883983,-1.2349998950958252,0.002,0.0
50,-0.00021543059847317636,-1.2320393323898315,0.901316,-1.233699917793274,0.002,0.0
51,-0.00021444912999868393,-1.2305058240890503,0.918649,-1.2323999404907227,0.002,0.0
52,-0.00021340632520150393,-1.2292789220809937,0.935982,-1.2310999631881714,0.002,0.0
53,-0.00021230218408163637,-1.2277454137802124,0.953315,-1.2297999858856201,0.002,0.0
54,-0.00021113670663908124,-1.2268253564834595,0.970648,-1.2285000085830688,0.002,0.0
55,-0.00021009390184190124,-1.2252917289733887,0.987981,-1.227199912071228,0.002,0.0
56,-0.0002089284243993461,-1.2237582206726074,1.005314,-1.2258999347686768,0.002,0.0
57,-0.00020788561960216612,-1.2228381633758545,1.022647,-1.2245999574661255,0.002,0.0
58,-0.00020672012760769576,-1.2222247123718262,1.03998,-1.2232999801635742,0.002,0.0
59,-0.0002056159864878282,-1.2200777530670166,1.057313,-1.222000002861023,0.002,0.0
60,-0.00020445050904527307,-1.2188509702682495,1.074646,-1.2206999063491821,0.002,0.0
61,-0.00020340770424809307,-1.2176240682601929,1.091979,-1.2193999290466309,0.002,0.0
62,-0.00020236489945091307,-1.2160905599594116,1.109312,-1.2180999517440796,0.002,0.0
63,-0.00020113807113375515,-1.2148637771606445,1.126645,-1.2167999744415283,0.002,0.0
64,-0.00020009528088849038,-1.213943600654602,1.143978,-1.215499997138977,0.002,0.0
65,-0.00019892978889402002,-1.2124100923538208,1.161311,-1.2141999006271362,0.002,0.0
66,-0.00019788698409684002,-1.2111833095550537,1.178644,-1.212899923324585,0.002,0.0
67,-0.00019678284297697246,-1.209956407546997,1.195977,-1.2115999460220337,0.002,0.0
68,-0.00019574003817979246,-1.2084228992462158,1.21331,-1.2102999687194824,0.002,0.0
69,-0.0001946972479345277,-1.207502841949463,1.230643,-1.2089999914169312,0.002,0.0
70,-0.00019359310681466013,-1.2056626081466675,1.247976,-1.2076998949050903,0.002,0.0
71,-0.0001926116383401677,-1.2044357061386108,1.265309,-1.206399917602539,0.002,0.0
72,-0.00019150749722030014,-1.2032089233398438,1.282642,-1.2050999402999878,0.002,0.0
73,-0.00019046469242312014,-1.2022887468338013,1.299975,-1.2037999629974365,0.002,0.0
74,-0.00018923786410596222,-1.2004485130310059,1.317308,-1.2024999856948853,0.002,0.0
75,-0.00018813372298609465,-1.1992217302322388,1.334641,-1.201200008392334,0.002,0.0
76,-0.00018696824554353952,-1.1983016729354858,1.351974,-1.1998999118804932,0.002,0.0
77,-0.00018580275354906917,-1.1964613199234009,1.369307,-1.198599934577942,0.002,0.0
78,-0.00018457593978382647,-1.1952345371246338,1.38664,-1.1972999572753906,0.002,0.0
79,-0.0001834104477893561,-1.1937010288238525,1.403973,-1.1959999799728394,0.002,0.0
80,-0.00018236764299217612,-1.1924742460250854,1.421306,-1.194700002670288,0.002,0.0
81,-0.00018114082922693342,-1.1921675205230713,1.438639,-1.1933999061584473,0.002,0.0
82,-0.00017997533723246306,-1.1903272867202759,1.455972,-1.192099928855896,0.002,0.0
83,-0.00017880985978990793,-1.1891003847122192,1.473305,-1.1907999515533447,0.002,0.0
84,-0.00017758303147275,-1.1881803274154663,1.490638,-1.1894999742507935,0.002,0.0
85,-0.00017660156299825758,-1.186646819114685,1.507971,-1.1881999969482422,0.002,0.0
86,-0.0001753133983584121,-1.1848065853118896,1.525304,-1.1868999004364014,0.002,0.0
87,-0.00017427060811314732,-1.1838864088058472,1.542637,-1.18559992313385,0.002,0.0
88,-0.00017316645244136453,-1.182352900505066,1.55997,-1.1842999458312988,0.002,0.0
89,-0.00017212366219609976,-1.1808193922042847,1.577303,-1.1829999685287476,0.002,0.0
90,-0.0001709581702016294,-1.1798992156982422,1.594636,-1.1816999912261963,0.002,0.0
91,-0.0001699153654044494,-1.1780589818954468,1.611969,-1.1803998947143555,0.002,0.0
92,-0.00016887257515918463,-1.1771389245986938,1.629302,-1.1790999174118042,0.002,0.0
93,-0.000167952457559295,-1.1759120225906372,1.646635,-1.177799940109253,0.002,0.0
94,-0.00016580551164224744,-1.173458456993103,1.681301,-1.1751999855041504,0.002,0.0
95,-0.0001648853940423578,-1.1719248294830322,1.698634,-1.1739000082015991,0.002,0.0
96,-0.0001638425892451778,-1.1710047721862793,1.715967,-1.1725999116897583,0.002,0.0
97,-0.0001627997844479978,-1.169471263885498,1.7333,-1.171299934387207,0.002,0.0
98,-0.00016169564332813025,-1.1688578128814697,1.750633,-1.1699999570846558,0.002,0.0
99,-0.00016065283853095025,-1.1667108535766602,1.767966,-1.1686999797821045,0.002,0.0
100,-0.00015954869741108268,-1.1657907962799072,1.785299,-1.1674000024795532,0.002,0.0
101,-0.00015856724348850548,-1.1645638942718506,1.802632,-1.1660999059677124,0.002,0.0
102,-0.00015758577501401305,-1.1630303859710693,1.819965,-1.1647999286651611,0.002,0.0
103,-0.0001564816338941455,-1.1618036031723022,1.837298,-1.1634999513626099,0.002,0.0
104,-0.0001554388290969655,-1.1602699756622314,1.854631,-1.1621999740600586,0.002,0.0
105,-0.0001543960242997855,-1.1593499183654785,1.871964,-1.1608999967575073,0.002,0.0
106,-0.00015323054685723037,-1.1581231355667114,1.889297,-1.1595999002456665,0.002,0.0
107,-0.00015218774206005037,-1.1565895080566406,1.90663,-1.1582999229431152,0.002,0.0
108,-0.0001510836009401828,-1.1553627252578735,1.923963,-1.156999945640564,0.002,0.0
109,-0.00014997945982031524,-1.1541359424591064,1.941296,-1.1556999683380127,0.002,0.0
110,-0.00014899800589773804,-1.1526023149490356,1.958629,-1.1543999910354614,0.002,0.0
111,-0.00014795520110055804,-1.1516822576522827,1.975962,-1.1530998945236206,0.002,0.0
112,-0.00014691239630337805,-1.1501487493515015,1.993295,-1.1517999172210693,0.002,0.0
113,-0.00014586959150619805,-1.149228572845459,2.010628,-1.150499939918518,0.002,0.0
114,-0.00014476545038633049,-1.1473883390426636,2.027961,-1.1491999626159668,0.002,0.0
115,-0.00014366130926646292,-1.1461615562438965,2.045294,-1.1478999853134155,0.002,0.0
116,-0.00014267985534388572,-1.1446280479431152,2.062627,-1.1466000080108643,0.002,0.0
117,-0.00014163705054670572,-1.1434011459350586,2.07996,-1.1452999114990234,0.002,0.0
118,-0.00014059424574952573,-1.1424810886383057,2.097293,-1.1439999341964722,0.002,0.0
119,-0.00013961279182694852,-1.1409475803375244,2.114626,-1.142699956893921,0.002,0.0
120,-0.0001386313233524561,-1.1397206783294678,2.131959,-1.1413999795913696,0.002,0.0
121,-0.0001375885185552761,-1.1384938955307007,2.149292,-1.1401000022888184,0.002,0.0
122,-0.00013648437743540853,-1.1372671127319336,2.166625,-1.1387999057769775,0.002,0.0
123,-0.00013550292351283133,-1.1354267597198486,2.183958,-1.1374999284744263,0.002,0.0
124,-0.00013439878239296377,-1.1345067024230957,2.201291,-1.136199951171875,0.002,0.0
125,-0.00013341731391847134,-1.1332799196243286,2.218624,-1.1348999738693237,0.002,0.0
126,-0.00013237450912129134,-1.1314396858215332,2.235957,-1.1335999965667725,0.002,0.0
127,-0.00013127036800142378,-1.1305195093154907,2.25329,-1.1322999000549316,0.002,0.0
128,-0.000130227577756159,-1.1286792755126953,2.270623,-1.1309999227523804,0.002,0.0
129,-0.000129184772958979,-1.1274524927139282,2.287956,-1.129699945449829,0.002,0.0
130,-0.00012808063183911145,-1.1259188652038574,2.305289,-1.1283999681472778,0.002,0.0
131,-0.00012709916336461902,-1.1253055334091187,2.322622,-1.1270999908447266,0.002,0.0
132,-0.00012605635856743902,-1.1237720251083374,2.339955,-1.1257998943328857,0.002,0.0
133,-0.00012495221744757146,-1.122851848602295,2.357288,-1.1244999170303345,0.002,0.0
134,-0.00012403209984768182,-1.1213183403015137,2.374621,-1.1231999397277832,0.002,0.0
135,-0.00012292795872781426,-1.1200915575027466,2.391954,-1.121899962425232,0.002,0.0
136,-0.00012194649752927944,-1.119171380996704,2.409287,-1.1205999851226807,0.002,0.0
137,-0.00012108772352803499,-1.1173311471939087,2.42662,-1.1193000078201294,0.002,0.0
138,-0.00012010626232950017,-1.1161043643951416,2.443953,-1.1179999113082886,0.002,0.0
139,-0.00011912480113096535,-1.114877462387085,2.461286,-1.1166999340057373,0.002,0.0
140,-0.00011820468353107572,-1.1136506795883179,2.478619,-1.115399956703186,0.002,0.0
141,-0.00011728456593118608,-1.1121171712875366,2.495952,-1.1140999794006348,0.002,0.0
142,-0.00011642578465398401,-1.1111969947814941,2.513285,-1.1128000020980835,0.002,0.0
143,-0.0001154443234554492,-1.109663486480713,2.530618,-1.1114999055862427,0.002,0.0
144,-0.00011452420585555956,-1.1084367036819458,2.547951,-1.1101999282836914,0.002,0.0
145,-0.0001136654318543151,-1.1072098016738892,2.565284,-1.1088999509811401,0.002,0.0
146,-0.00011274530697846785,-1.105983018875122,2.582617,-1.1075999736785889,0.002,0.0
147,-0.0001118865329772234,-1.1044495105743408,2.59995,-1.1062999963760376,0.002,0.0
148,-0.0001108437281800434,-1.1029160022735596,2.617283,-1.1049998998641968,0.002,0.0
149,-0.00011004629050148651,-1.101995825767517,2.634616,-1.1036999225616455,0.002,0.0
150,-0.00010912617290159687,-1.1004623174667358,2.651949,-1.1023999452590942,0.002,0.0
151,-0.00010802203178172931,-1.0992354154586792,2.669282,-1.101099967956543,0.002,0.0
152,-0.00010716325050452724,-1.0986220836639404,2.686615,-1.0997999906539917,0.002,0.0
153,-0.0001062431329046376,-1.0964751243591309,2.703948,-1.0984998941421509,0.002,0.0
154,-0.00010532301530474797,-1.0952483415603638,2.721281,-1.0971999168395996,0.002,0.0
155,-0.00010428021778352559,-1.0940214395523071,2.738614,-1.0958999395370483,0.002,0.0
156,-0.00010342143650632352,-1.0924879312515259,2.755947,-1.094599962234497,0.002,0.0
157,-0.00010237863170914352,-1.0912611484527588,2.77328,-1.0932999849319458,0.002,0.0
158,-0.00010139717778656632,-1.0903409719467163,2.790613,-1.0920000076293945,0.002,0.0
159,-0.00010047705291071907,-1.0891141891479492,2.807946,-1.0906999111175537,0.002,0.0
160,-9.955693531082943e-05,-1.087580680847168,2.825279,-1.0893999338150024,0.002,0.0
161,-9.857547411229461e-05,-1.0863537788391113,2.842612,-1.0880999565124512,0.002,0.0
162,-9.765535651240498e-05,-1.0851269960403442,2.859945,-1.0867999792099,0.002,0.0
163,-9.679658251116052e-05,-1.083593487739563,2.877278,-1.0855000019073486,0.002,0.0
164,-9.575377771398053e-05,-1.0823665857315063,2.894611,-1.0841999053955078,0.002,0.0
165,-9.483366011409089e-05,-1.080526351928711,2.911944,-1.0828999280929565,0.002,0.0
166,-9.397487883688882e-05,-1.079606294631958,2.929277,-1.0815999507904053,0.002,0.0
167,-9.305476123699918e-05,-1.0783793926239014,2.94661,-1.080299973487854,0.002,0.0
168,-9.22573235584423e-05,-1.0771526098251343,2.963943,-1.0789999961853027,0.002,0.0
169,-9.133720595855266e-05,-1.0759258270263672,2.981276,-1.077699899673462,0.002,0.0
170,-9.053976827999577e-05,-1.0750056505203247,2.998609,-1.0763999223709106,0.002,0.0
171,-8.961965068010613e-05,-1.0734721422195435,3.015942,-1.0750999450683594,0.002,0.0
172,-8.876087667886168e-05,-1.0722453594207764,3.033275,-1.073799967765808,0.002,0.0
173,-8.784075180301443e-05,-1.0710184574127197,3.050608,-1.0724999904632568,0.002,0.0
174,-8.698197780176997e-05,-1.0688714981079102,3.067941,-1.071199893951416,0.002,0.0
175,-8.61231965245679e-05,-1.0682581663131714,3.085274,-1.0698999166488647,0.002,0.0
176,-8.526442252332345e-05,-1.0670312643051147,3.102607,-1.0685999393463135,0.002,0.0
177,-8.440564124612138e-05,-1.0654977560043335,3.11994,-1.0672999620437622,0.002,0.0
178,-8.360820356756449e-05,-1.0645776987075806,3.137273,-1.065999984741211,0.002,0.0
179,-8.262674964498729e-05,-1.0630440711975098,3.154606,-1.0647000074386597,0.002,0.0
180,-8.176796836778522e-05,-1.0618172883987427,3.171939,-1.0633999109268188,0.002,0.0
181,-8.090919436654076e-05,-1.0605905055999756,3.189272,-1.0620999336242676,0.002,0.0
182,-8.005041308933869e-05,-1.0590568780899048,3.206605,-1.0607999563217163,0.002,0.0
183,-7.919163908809423e-05,-1.0575233697891235,3.223938,-1.059499979019165,0.002,0.0
184,-7.839420140953735e-05,-1.0566033124923706,3.241271,-1.0582000017166138,0.002,0.0
185,-7.765810732962564e-05,-1.055376410484314,3.258604,-1.056899905204773,0.002,0.0
186,-7.679932605242357e-05,-1.0535361766815186,3.275937,-1.0555999279022217,0.002,0.0
187,-7.594055205117911e-05,-1.0523093938827515,3.29327,-1.0542999505996704,0.002,0.0
188,-7.526579429395497e-05,-1.0507758855819702,3.310603,-1.0529999732971191,0.002,0.0
189,-7.440702029271051e-05,-1.0495489835739136,3.327936,-1.0516999959945679,0.002,0.0
190,-7.360958261415362e-05,-1.0480154752731323,3.345269,-1.050399899482727,0.002,0.0
191,-7.281214493559673e-05,-1.0474021434783936,3.362602,-1.0490999221801758,0.002,0.0
192,-7.207605085568503e-05,-1.0455619096755981,3.379935,-1.0477999448776245,0.002,0.0
193,-7.133995677577332e-05,-1.0446417331695557,3.397268,-1.0464999675750732,0.002,0.0
194,-7.066519901854917e-05,-1.0434149503707886,3.414601,-1.045199990272522,0.002,0.0
195,-6.999044853728265e-05,-1.0418813228607178,3.431934,-1.0438998937606812,0.002,0.0
196,-6.90703236614354e-05,-1.0406545400619507,3.449267,-1.0425999164581299,0.002,0.0
197,-6.839557318016887e-05,-1.0394277572631836,3.4666,-1.0412999391555786,0.002,0.0
198,-6.759813550161198e-05,-1.038200855255127,3.483933,-1.0399999618530273,0.002,0.0
199,-6.686204142170027e-05,-1.0369740724563599,3.501266,-1.038699984550476,0.002,0.0
200,-6.606460374314338e-05,-1.0354405641555786,3.518599,-1.0374000072479248,0.002,0.0
201,-6.532850966323167e-05,-1.0342137813568115,3.535932,-1.036099910736084,0.002,0.0
202,-6.453107198467478e-05,-1.0326801538467407,3.553265,-1.0347999334335327,0.002,0.0
203,-6.379497790476307e-05,-1.0317600965499878,3.570598,-1.0334999561309814,0.002,0.0
204,-6.299754022620618e-05,-1.0308399200439453,3.587931,-1.0321999788284302,0.002,0.0
205,-6.22001025476493e-05,-1.0286929607391357,3.605264,-1.030900001525879,0.002,0.0
206,-6.134132854640484e-05,-1.0277729034423828,3.622597,-1.029599905014038,0.002,0.0
207,-6.048254726920277e-05,-1.0262393951416016,3.63993,-1.0282999277114868,0.002,0.0
208,-5.980779678793624e-05,-1.025012493133545,3.657263,-1.0269999504089355,0.002,0.0
209,-5.894901551073417e-05,-1.024092435836792,3.674596,-1.0256999731063843,0.002,0.0
210,-5.809023787151091e-05,-1.0225589275360107,3.691929,-1.024399995803833,0.002,0.0
211,-5.73541437915992e-05,-1.0216387510299683,3.709262,-1.0230998992919922,0.002,0.0
212,-5.661804971168749e-05,-1.020105242729187,3.726595,-1.021799921989441,0.002,0.0
213,-5.600463555310853e-05,-1.01887845993042,3.743928,-1.0204999446868896,0.002,0.0
214,-5.5145857913885266e-05,-1.0179582834243774,3.761261,-1.0191999673843384,0.002,0.0
215,-5.447110379463993e-05,-1.0164247751235962,3.778594,-1.017899990081787,0.002,0.0
216,-5.367366975406185e-05,-1.0145845413208008,3.795927,-1.0165998935699463,0.002,0.0
217,-5.299891563481651e-05,-1.0139710903167725,3.81326,-1.015299916267395,0.002,0.0
218,-5.2262817916925997e-05,-1.012130856513977,3.830593,-1.0139999389648438,0.002,0.0
219,-5.164940739632584e-05,-1.01090407371521,3.847926,-1.0126999616622925,0.002,0.0
220,-5.0974653277080506e-05,-1.0096771717071533,3.865259,-1.0113999843597412,0.002,0.0
221,-5.023855555918999e-05,-1.008143663406372,3.882592,-1.01010000705719,0.002,0.0
222,-4.956380507792346e-05,-1.0072236061096191,3.899925,-1.0087999105453491,0.002,0.0
223,-4.870502380072139e-05,-1.0053833723068237,3.917258,-1.0074999332427979,0.002,0.0
224,-4.809161328012124e-05,-1.0044631958007812,3.934591,-1.0061999559402466,0.002,0.0
225,-4.7478199121542275e-05,-1.0032364130020142,3.951924,-1.0048999786376953,0.002,0.0
226,-4.668076508096419e-05,-1.001702904701233,3.969257,-1.003600001335144,0.002,0.0
227,-4.606735092238523e-05,-1.0007827281951904,3.98659,-1.0022999048233032,0.002,0.0
228,-4.545393676380627e-05,-0.9992492198944092,4.003923,-1.000999927520752,0.002,0.0
229,-4.4656502723228186e-05,-0.9980223774909973,4.021256,-0.9996999502182007,0.002,0.0
230,-4.392040500533767e-05,-0.9967955350875854,4.038589,-0.9983999729156494,0.002,0.0
231,-4.318431092542596e-05,-0.9952620267868042,4.055922,-0.9970999360084534,0.002,0.0
232,-4.238687324686907e-05,-0.9943419098854065,4.073255,-0.9957999587059021,0.002,0.0
