,current,potential,elapsed_time,applied_potential,current_range,segment
0,-0.00017764436779543757,-1.2979811429977417,0.017333,-1.2999999523162842,0.002,0.0
1,-0.00016881122428458184,-1.2967543601989746,0.034666,-1.298699975013733,0.002,0.0
2,-0.0001630451442906633,-1.2958341836929321,0.051999,-1.2973999977111816,0.002,0.0
3,-0.00015862857981119305,-1.2949141263961792,0.069332,-1.2960999011993408,0.002,0.0
4,-0.00015525480557698756,-1.2930738925933838,0.086665,-1.2947999238967896,0.002,0.0
5,-0.0001524331164546311,-1.2921537160873413,0.103998,-1.2934999465942383,0.002,0.0
6,-0.0001501021470176056,-1.29062020778656,0.121331,-1.292199969291687,0.002,0.0
7,-0.00014783251390326768,-1.289393424987793,0.138664,-1.2908999919891357,0.002,0.0
8,-0.00014593094238080084,-1.2878599166870117,0.155997,-1.289599895477295,0.002,0.0
9,-0.00014409069262910634,-1.286633014678955,0.17333,-1.2882999181747437,0.002,0.0
10,-0.00014249581727199256,-1.2850995063781738,0.190663,-1.2869999408721924,0.002,0.0
11,-0.00014102362911216915,-1.284179449081421,0.207996,-1.2856999635696411,0.002,0.0
12,-0.00013961279182694852,-1.2829525470733643,0.225329,-1.2843999862670898,0.002,0.0
13,-0.00013820193998981267,-1.281419038772583,0.242662,-1.2831000089645386,0.002,0.0
14,-0.00013672975182998925,-1.280192255973816,0.259995,-1.2817999124526978,0.002,0.0
15,-0.00013538023631554097,-1.2795788049697876,0.277328,-1.2804999351501465,0.002,0.0
16,-0.00013396938447840512,-1.2777385711669922,0.294661,-1.2791999578475952,0.002,0.0
17,-0.0001301662268815562,-1.276511788368225,0.311994,-1.277899980545044,0.002,0.0
18,-0.00012378674000501633,-1.2749781608581543,0.329327,-1.2766000032424927,0.002,0.0
19,-0.00012341869296506047,-1.2737513780593872,0.34666,-1.2752999067306519,0.002,0.0
20,-0.00012274393520783633,-1.2719111442565918,0.363993,-1.2739999294281006,0.002,0.0
21,-0.00012163979408796877,-1.2706843614578247,0.381326,-1.2726999521255493,0.002,0.0
22,-0.00012114905985072255,-1.269457459449768,0.398659,-1.271399974822998,0.002,0.0
23,-0.0001205356529681012,-1.2685374021530151,0.415992,-1.2700999975204468,0.002,0.0
24,-0.00011979955161223188,-1.2670038938522339,0.433325,-1.268799901008606,0.002,0.0
25,-0.0001190021212096326,-1.2657769918441772,0.450658,-1.2674999237060547,0.002,0.0
26,-0.00011832736345240846,-1.2648569345474243,0.467991,-1.2661999464035034,0.002,0.0
27,-0.0001177139492938295,-1.2633233070373535,0.485324,-1.2648999691009521,0.002,0.0
28,-0.00011728456593118608,-1.2620965242385864,0.502657,-1.2635999917984009,0.002,0.0
29,-0.00011697785521391779,-1.2605630159378052,0.51999,-1.26229989528656,0.002,0.0
30,-0.00011660980817396194,-1.259336233139038,0.537323,-1.2609999179840088,0.002,0.0
31,-0.00011599639401538298,-1.2574958801269531,0.554656,-1.2596999406814575,0.002,0.0
32,-0.0001156896905740723,-1.2568825483322144,0.571989,-1.2583999633789062,0.002,0.0
33,-0.00011581237049540505,-1.255349040031433,0.589322,-1.257099986076355,0.002,0.0
34,-0.00011605773761402816,-1.2538154125213623,0.606655,-1.2558000087738037,0.002,0.0
35,-0.00011667115177260712,-1.2532020807266235,0.623988,-1.254499912261963,0.002,0.0
36,-0.0001177139492938295,-1.2516685724258423,0.641321,-1.2531999349594116,0.002,0.0
37,-0.00011814333993243054,-1.2501349449157715,0.658654,-1.2518999576568604,0.002,0.0
38,-0.00011795931641245261,-1.2492148876190186,0.675987,-1.250599980354309,0.002,0.0
39,-0.00011765261297114193,-1.2476813793182373,0.69332,-1.2493000030517578,0.002,0.0
40,-0.00011752992577385157,-1.2464544773101807,0.710653,-1.247999906539917,0.002,0.0
41,-0.00011734590225387365,-1.2452276945114136,0.727986,-1.2466999292373657,0.002,0.0
42,-0.00011703919881256297,-1.2440009117126465,0.745319,-1.2453999519348145,0.002,0.0
43,-0.00011667115177260712,-1.2424672842025757,0.762652,-1.2440999746322632,0.002,0.0
44,-0.00011636444105533883,-1.2409337759017944,0.779985,-1.242799997329712,0.002,0.0
45,-0.00011593505769269541,-1.2400137186050415,0.797318,-1.241499900817871,0.002,0.0
46,-0.0001156896905740723,-1.2384800910949707,0.814651,-1.2401999235153198,0.002,0.0
47,-0.00011495359649416059,-1.2357197999954224,0.849317,-1.2375999689102173,0.002,0.0
48,-0.00011446286225691438,-1.2344930171966553,0.86665,-1.236299991607666,0.002,0.0
49,-0.00011397213529562578,-1.2335728406906128,0.883983,-1.2349998950958252,0.002,0.0
50,-0.00011354274465702474,-1.2320393323898315,0.901316,-1.233699917793274,0.002,0.0
51,-0.00011317469761706889,-1.231119155883789,0.918649,-1.2323999404907227,0.002,0.0
52,-0.00011280665057711303,-1.229892373085022,0.935982,-1.2310999631881714,0.002,0.0
53,-0.00011231592361582443,-1.2277454137802124,0.953315,-1.2297999858856201,0.002,0.0
54,-0.00011176384577993304,-1.2268253564834595,0.970648,-1.2285000085830688,0.002,0.0
55,-0.00011108909529866651,-1.2255984544754028,0.987981,-1.227199912071228,0.002,0.0
56,-0.00011072104825871065,-1.2240649461746216,1.005314,-1.2258999347686768,0.002,0.0
57,-0.00011010763410013169,-1.2228381633758545,1.022647,-1.2245999574661255,0.002,0.0
58,-0.00010961690713884309,-1.2216112613677979,1.03998,-1.2232999801635742,0.002,0.0
59,-0.00010888081305893138,-1.220691204071045,1.057313,-1.222000002861023,0.002,0.0
60,-0.00010759264114312828,-1.2188509702682495,1.074646,-1.2206999063491821,0.002,0.0
61,-0.00010293070954503492,-1.217930793762207,1.091979,-1.2193999290466309,0.002,0.0
62,-0.00010170388122787699,-1.2160905599594116,1.109312,-1.2180999517440796,0.002,0.0
63,-0.00010182656114920974,-1.2151705026626587,1.126645,-1.2167999744415283,0.002,0.0
64,-0.00010109046706929803,-1.213636875152588,1.143978,-1.215499997138977,0.002,0.0
65,-0.00010084509995067492,-1.2130235433578491,1.161311,-1.2141999006271362,0.002,0.0
66,-0.00010047705291071907,-1.2114900350570679,1.178644,-1.212899923324585,0.002,0.0
67,-9.998632594943047e-05,-1.2093430757522583,1.195977,-1.2115999460220337,0.002,0.0
68,-9.949559898814186e-05,-1.2090363502502441,1.21331,-1.2102999687194824,0.002,0.0
69,-9.91275446722284e-05,-1.207809567451477,1.230643,-1.2089999914169312,0.002,0.0
70,-9.869816130958498e-05,-1.205969214439392,1.247976,-1.2076998949050903,0.002,0.0
71,-9.851413778960705e-05,-1.2044357061386108,1.265309,-1.206399917602539,0.002,0.0
72,-9.826877067098394e-05,-1.2041289806365967,1.282642,-1.2050999402999878,0.002,0.0
73,-9.808474715100601e-05,-1.2022887468338013,1.299975,-1.2037999629974365,0.002,0.0
74,-9.75940129137598e-05,-1.20075523853302,1.317308,-1.2024999856948853,0.002,0.0
75,-9.73486530710943e-05,-1.1992217302322388,1.334641,-1.201200008392334,0.002,0.0
76,-9.747133299242705e-05,-1.1979949474334717,1.351974,-1.1998999118804932,0.002,0.0
77,-9.790072363102809e-05,-1.1970747709274292,1.369307,-1.198599934577942,0.002,0.0
78,-9.839145059231669e-05,-1.1961547136306763,1.38664,-1.1972999572753906,0.002,0.0
79,-9.900486475089565e-05,-1.1940077543258667,1.403973,-1.1959999799728394,0.002,0.0
80,-9.949559898814186e-05,-1.1930875778198242,1.421306,-1.194700002670288,0.002,0.0
81,-9.949559898814186e-05,-1.191554069519043,1.438639,-1.1933999061584473,0.002,0.0
82,-9.949559898814186e-05,-1.19063401222229,1.455972,-1.192099928855896,0.002,0.0
83,-9.931156819220632e-05,-1.1891003847122192,1.473305,-1.1907999515533447,0.002,0.0
84,-9.894352115225047e-05,-1.1878736019134521,1.490638,-1.1894999742507935,0.002,0.0
85,-9.88821848295629e-05,-1.186646819114685,1.507971,-1.1881999969482422,0.002,0.0
86,-9.869816130958498e-05,-1.1854199171066284,1.525304,-1.1868999004364014,0.002,0.0
87,-9.845279419096187e-05,-1.1838864088058472,1.542637,-1.18559992313385,0.002,0.0
88,-9.833011426962912e-05,-1.18265962600708,1.55997,-1.1842999458312988,0.002,0.0
89,-9.790072363102809e-05,-1.1814327239990234,1.577303,-1.1829999685287476,0.002,0.0
90,-9.771670011105016e-05,-1.1802059412002563,1.594636,-1.1816999912261963,0.002,0.0
91,-9.740998939378187e-05,-1.178672432899475,1.611969,-1.1803998947143555,0.002,0.0
92,-9.71032859524712e-05,-1.1774455308914185,1.629302,-1.1790999174118042,0.002,0.0
93,-9.679658251116052e-05,-1.1759120225906372,1.646635,-1.177799940109253,0.002,0.0
94,-9.630584827391431e-05,-1.173458456993103,1.681301,-1.1751999855041504,0.002,0.0
95,-9.58151213126257e-05,-1.1719248294830322,1.698634,-1.1739000082015991,0.002,0.0
96,-9.532438707537949e-05,-1.1706980466842651,1.715967,-1.1725999116897583,0.002,0.0
97,-9.495634003542364e-05,-1.1697778701782227,1.7333,-1.171299934387207,0.002,0.0
98,-9.446561307413504e-05,-1.1679376363754272,1.750633,-1.1699999570846558,0.002,0.0
99,-9.409756603417918e-05,-1.1673243045806885,1.767966,-1.1686999797821045,0.002,0.0
100,-9.360683179693297e-05,-1.1657907962799072,1.785299,-1.1674000024795532,0.002,0.0
101,-9.305476123699918e-05,-1.1648706197738647,1.802632,-1.1660999059677124,0.002,0.0
102,-9.22573235584423e-05,-1.1633371114730835,1.819965,-1.1647999286651611,0.002,0.0
103,-8.912892371881753e-05,-1.1621102094650269,1.837298,-1.1634999513626099,0.002,0.0
104,-8.655258716316894e-05,-1.1602699756622314,1.854631,-1.1621999740600586,0.002,0.0
105,-8.704332140041515e-05,-1.1593499183654785,1.871964,-1.1608999967575073,0.002,0.0
106,-8.649124356452376e-05,-1.1581231355667114,1.889297,-1.1595999002456665,0.002,0.0
107,-8.618454012321308e-05,-1.1568962335586548,1.90663,-1.1582999229431152,0.002,0.0
108,-8.593917300458997e-05,-1.1553627252578735,1.923963,-1.156999945640564,0.002,0.0
109,-8.581649308325723e-05,-1.1541359424591064,1.941296,-1.1556999683380127,0.002,0.0
110,-8.532576612196863e-05,-1.153215765953064,1.958629,-1.1543999910354614,0.002,0.0
111,-8.501905540470034e-05,-1.1519889831542969,1.975962,-1.1530998945236206,0.002,0.0
112,-8.465100836474448e-05,-1.1501487493515015,1.993295,-1.1517999172210693,0.002,0.0
113,-8.452832844341174e-05,-1.1489218473434448,2.010628,-1.150499939918518,0.002,0.0
114,-8.416028140345588e-05,-1.1476950645446777,2.027961,-1.1491999626159668,0.002,0.0
115,-8.391491428483278e-05,-1.1461615562438965,2.045294,-1.1478999853134155,0.002,0.0
116,-8.397625788347796e-05,-1.145241379737854,2.062627,-1.1466000080108643,0.002,0.0
117,-8.342418004758656e-05,-1.1434011459350586,2.07996,-1.1452999114990234,0.002,0.0
118,-8.324015652760863e-05,-1.1421743631362915,2.097293,-1.1439999341964722,0.002,0.0
119,-8.342418004758656e-05,-1.1409475803375244,2.114626,-1.142699956893921,0.002,0.0
120,-8.360820356756449e-05,-1.140334129333496,2.131959,-1.1413999795913696,0.002,0.0
121,-8.379223436350003e-05,-1.1384938955307007,2.149292,-1.1401000022888184,0.002,0.0
122,-8.440564124612138e-05,-1.1369603872299194,2.166625,-1.1387999057769775,0.002,0.0
123,-8.471235196338966e-05,-1.136040210723877,2.183958,-1.1374999284744263,0.002,0.0
124,-8.471235196338966e-05,-1.1348134279251099,2.201291,-1.136199951171875,0.002,0.0
125,-8.452832844341174e-05,-1.1332799196243286,2.218624,-1.1348999738693237,0.002,0.0
126,-8.434430492343381e-05,-1.132053017616272,2.235957,-1.1335999965667725,0.002,0.0
127,-8.40989378048107e-05,-1.1305195093154907,2.25329,-1.1322999000549316,0.002,0.0
128,-8.403759420616552e-05,-1.1292927265167236,2.270623,-1.1309999227523804,0.002,0.0
129,-8.373089076485485e-05,-1.1286792755126953,2.287956,-1.129699945449829,0.002,0.0
130,-8.360820356756449e-05,-1.127145767211914,2.305289,-1.1283999681472778,0.002,0.0
131,-8.330150012625381e-05,-1.1256122589111328,2.322622,-1.1270999908447266,0.002,0.0
132,-8.311747660627589e-05,-1.1243853569030762,2.339955,-1.1257998943328857,0.002,0.0
133,-8.274942956632003e-05,-1.123158574104309,2.357288,-1.1244999170303345,0.002,0.0
134,-8.262674964498729e-05,-1.1213183403015137,2.374621,-1.1231999397277832,0.002,0.0
135,-8.238138252636418e-05,-1.1200915575027466,2.391954,-1.121899962425232,0.002,0.0
136,-8.201333548640832e-05,-1.119171380996704,2.409287,-1.1205999851226807,0.002,0.0
137,-8.18293119664304e-05,-1.1176378726959229,2.42662,-1.1193000078201294,0.002,0.0
138,-8.164528844645247e-05,-1.1164109706878662,2.443953,-1.1179999113082886,0.002,0.0
139,-8.121589780785143e-05,-1.1151841878890991,2.461286,-1.1166999340057373,0.002,0.0
140,-8.084785076789558e-05,-1.113957405090332,2.478619,-1.115399956703186,0.002,0.0
141,-8.047980372793972e-05,-1.1124238967895508,2.495952,-1.1140999794006348,0.002,0.0
142,-8.011175668798387e-05,-1.11089026927948,2.513285,-1.1128000020980835,0.002,0.0
143,-7.974370964802802e-05,-1.109663486480713,2.530618,-1.1114999055862427,0.002,0.0
144,-7.937566260807216e-05,-1.1084367036819458,2.547951,-1.1101999282836914,0.002,0.0
145,-7.888492837082595e-05,-1.1072098016738892,2.565284,-1.1088999509811401,0.002,0.0
146,-7.833285781089216e-05,-1.105983018875122,2.582617,-1.1075999736785889,0.002,0.0
147,-7.630859909113497e-05,-1.1044495105743408,2.59995,-1.1062999963760376,0.002,0.0
148,-7.305751205421984e-05,-1.1032226085662842,2.617283,-1.1049998998641968,0.002,0.0
149,-7.330287189688534e-05,-1.101995825767517,2.634616,-1.1036999225616455,0.002,0.0
150,-7.287348853424191e-05,-1.10076904296875,2.651949,-1.1023999452590942,0.002,0.0
151,-7.244409789564088e-05,-1.0995421409606934,2.669282,-1.101099967956543,0.002,0.0
152,-7.250543421832845e-05,-1.0983153581619263,2.686615,-1.0997999906539917,0.002,0.0
153,-7.232141069835052e-05,-1.0964751243591309,2.703948,-1.0984998941421509,0.002,0.0
154,-7.18920273357071e-05,-1.0958616733551025,2.721281,-1.0971999168395996,0.002,0.0
155,-7.152398029575124e-05,-1.0943281650543213,2.738614,-1.0958999395370483,0.002,0.0
156,-7.115593325579539e-05,-1.0934079885482788,2.755947,-1.094599962234497,0.002,0.0
157,-7.103324605850503e-05,-1.0915677547454834,2.77328,-1.0932999849319458,0.002,0.0
158,-7.066519901854917e-05,-1.0903409719467163,2.790613,-1.0920000076293945,0.002,0.0
159,-7.0603855419904e-05,-1.088807463645935,2.807946,-1.0906999111175537,0.002,0.0
160,-7.048117549857125e-05,-1.0878872871398926,2.825279,-1.0893999338150024,0.002,0.0
161,-7.011312845861539e-05,-1.0866605043411255,2.842612,-1.0880999565124512,0.002,0.0
162,-6.986776133999228e-05,-1.0854337215423584,2.859945,-1.0867999792099,0.002,0.0
163,-6.992910493863747e-05,-1.0839000940322876,2.877278,-1.0855000019073486,0.002,0.0
164,-7.005178485997021e-05,-1.0829800367355347,2.894611,-1.0841999053955078,0.002,0.0
165,-7.017447205726057e-05,-1.0811398029327393,2.911944,-1.0828999280929565,0.002,0.0
166,-7.054251909721643e-05,-1.0799130201339722,2.929277,-1.0815999507904053,0.002,0.0
167,-7.091056613717228e-05,-1.0786861181259155,2.94661,-1.080299973487854,0.002,0.0
168,-7.091056613717228e-05,-1.0774593353271484,2.963943,-1.0789999961853027,0.002,0.0
169,-7.072654261719435e-05,-1.075619101524353,2.981276,-1.077699899673462,0.002,0.0
170,-7.0603855419904e-05,-1.0746989250183105,2.998609,-1.0763999223709106,0.002,0.0
171,-7.048117549857125e-05,-1.0734721422195435,3.015942,-1.0750999450683594,0.002,0.0
172,-7.017447205726057e-05,-1.0719386339187622,3.033275,-1.073799967765808,0.002,0.0
173,-6.992910493863747e-05,-1.0710184574127197,3.050608,-1.0724999904632568,0.002,0.0
174,-6.968373782001436e-05,-1.0694849491119385,3.067941,-1.071199893951416,0.002,0.0
175,-6.943837070139125e-05,-1.0679514408111572,3.085274,-1.0698999166488647,0.002,0.0
176,-6.93156907800585e-05,-1.0667245388031006,3.102607,-1.0685999393463135,0.002,0.0
177,-6.894764374010265e-05,-1.0658044815063477,3.11994,-1.0672999620437622,0.002,0.0
178,-6.876362022012472e-05,-1.0645776987075806,3.137273,-1.065999984741211,0.002,0.0
179,-6.833422958152369e-05,-1.063657522201538,3.154606,-1.0647000074386597,0.002,0.0
180,-6.808886973885819e-05,-1.0621240139007568,3.171939,-1.0633999109268188,0.002,0.0
181,-6.796618254156783e-05,-1.0602837800979614,3.189272,-1.0620999336242676,0.002,0.0
182,-6.772081542294472e-05,-1.059363603591919,3.206605,-1.0607999563217163,0.002,0.0
183,-6.747545558027923e-05,-1.0575233697891235,3.223938,-1.059499979019165,0.002,0.0
184,-6.716874486301094e-05,-1.0569100379943848,3.241271,-1.0582000017166138,0.002,0.0
185,-6.686204142170027e-05,-1.055376410484314,3.258604,-1.056899905204773,0.002,0.0
186,-6.649399438174441e-05,-1.0541496276855469,3.275937,-1.0555999279022217,0.002,0.0
187,-6.618728366447613e-05,-1.0529228448867798,3.29327,-1.0542999505996704,0.002,0.0
188,-6.581923662452027e-05,-1.0513893365859985,3.310603,-1.0529999732971191,0.002,0.0
189,-6.545118958456442e-05,-1.050162434577942,3.327936,-1.0516999959945679,0.002,0.0
190,-6.5021806221921e-05,-1.0486289262771606,3.345269,-1.050399899482727,0.002,0.0
191,-6.453107198467478e-05,-1.0470954179763794,3.362602,-1.0490999221801758,0.002,0.0
192,-6.275217310758308e-05,-1.046175241470337,3.379935,-1.0477999448776245,0.002,0.0
193,-6.0421207308536395e-05,-1.0449484586715698,3.397268,-1.0464999675750732,0.002,0.0
194,-6.06665744271595e-05,-1.0434149503707886,3.414601,-1.045199990272522,0.002,0.0
195,-6.023718378855847e-05,-1.042188048362732,3.431934,-1.0438998937606812,0.002,0.0
196,-5.9869136748602614e-05,-1.0409612655639648,3.449267,-1.0425999164581299,0.002,0.0
197,-5.9685113228624687e-05,-1.0397344827651978,3.4666,-1.0412999391555786,0.002,0.0
198,-5.9378406149335206e-05,-1.038200855255127,3.483933,-1.0399999618530273,0.002,0.0
199,-5.9071699070045725e-05,-1.0369740724563599,3.501266,-1.038699984550476,0.002,0.0
200,-5.8764991990756243e-05,-1.0351338386535645,3.518599,-1.0374000072479248,0.002,0.0
201,-5.839694495080039e-05,-1.0345203876495361,3.535932,-1.036099910736084,0.002,0.0
202,-5.8028897910844535e-05,-1.0336003303527832,3.553265,-1.0347999334335327,0.002,0.0
203,-5.784487439086661e-05,-1.0317600965499878,3.570598,-1.0334999561309814,0.002,0.0
204,-5.766085087088868e-05,-1.0305331945419312,3.587931,-1.0321999788284302,0.002,0.0
205,-5.7538167311577126e-05,-1.0296131372451782,3.605264,-1.030900001525879,0.002,0.0
206,-5.71087803109549e-05,-1.028079628944397,3.622597,-1.029599905014038,0.002,0.0
207,-5.6986096751643345e-05,-1.0265461206436157,3.63993,-1.0282999277114868,0.002,0.0
208,-5.704743671230972e-05,-1.025012493133545,3.657263,-1.0269999504089355,0.002,0.0
209,-5.717012027162127e-05,-1.024092435836792,3.674596,-1.0256999731063843,0.002,0.0
210,-5.741548739024438e-05,-1.0228655338287354,3.691929,-1.024399995803833,0.002,0.0
211,-5.7783534430200234e-05,-1.021332025527954,3.709262,-1.0230998992919922,0.002,0.0
212,-5.7783534430200234e-05,-1.020105242729187,3.726595,-1.021799921989441,0.002,0.0
213,-5.7722190831555054e-05,-1.0194917917251587,3.743928,-1.0204999446868896,0.002,0.0
214,-5.759951091022231e-05,-1.0179582834243774,3.761261,-1.0191999673843384,0.002,0.0
215,-5.73541437915992e-05,-1.0164247751235962,3.778594,-1.017899990081787,0.002,0.0
216,-5.7292803830932826e-05,-1.0151978731155396,3.795927,-1.0165998935699463,0.002,0.0
217,-5.704743671230972e-05,-1.0136643648147583,3.81326,-1.015299916267395,0.002,0.0
218,-5.686341319233179e-05,-1.0124375820159912,3.830593,-1.0139999389648438,0.002,0.0
219,-5.655670611304231e-05,-1.0115174055099487,3.847926,-1.0126999616622925,0.002,0.0
220,-5.6250002671731636e-05,-1.0096771717071533,3.865259,-1.0113999843597412,0.002,0.0
221,-5.606597915175371e-05,-1.0084503889083862,3.882592,-1.01010000705719,0.002,0.0
222,-5.575927207246423e-05,-1.0072236061096191,3.899925,-1.0087999105453491,0.002,0.0
223,-5.539122503250837e-05,-1.0053833723068237,3.917258,-1.0074999332427979,0.002,0.0
224,-5.5207201512530446e-05,-1.0050766468048096,3.934591,-1.0061999559402466,0.002,0.0
225,-5.496183439390734e-05,-1.0035431385040283,3.951924,-1.0048999786376953,0.002,0.0
226,-5.453244739328511e-05,-1.001702904701233,3.969257,-1.003600001335144,0.002,0.0
227,-5.434842387330718e-05,-1.0007827281951904,3.98659,-1.0022999048233032,0.002,0.0
228,-5.40417167940177e-05,-0.9995558857917786,4.003923,-1.000999927520752,0.002,0.0
229,-5.3857693274039775e-05,-0.9980223774909973,4.021256,-0.9996999502182007,0.002,0.0
230,-5.342830263543874e-05,-0.9967955350875854,4.038589,-0.9983999729156494,0.002,0.0
231,-5.318293915479444e-05,-0.9952620267868042,4.055922,-0.9970999360084534,0.002,0.0
232,-5.2753548516193405e-05,-0.9946485757827759,4.073255,-0.9957999587059021,0.002,0.0
233,-5.2508185035549104e-05,-0.9931150674819946,4.090588,-0.994499921798706,0.002,0.0
