,current,potential,elapsed_time,applied_potential,current_range,segment
0,-4.7527220885967836e-05,-0.9826870560646057,1.0,-0.9833349585533142,0.0002,0.0
1,-4.1945164412027225e-05,-0.977779746055603,2.0,-0.9783349633216858,0.0002,0.0
2,-3.7792360672028735e-05,-0.972565770149231,3.0,-0.9733349680900574,0.0002,0.0
3,-3.482344254734926e-05,-0.9676584601402283,4.0,-0.968334972858429,0.0002,0.0
4,-3.260288940509781e-05,-0.9627511501312256,5.0,-0.9633349776268005,0.0002,0.0
5,-3.076878419960849e-05,-0.9575371146202087,6.0,-0.9583349823951721,0.0002,0.0
6,-2.922912062786054e-05,-0.9526298642158508,7.0,-0.9533349871635437,0.0002,0.0
7,-2.7928685085498728e-05,-0.9477225542068481,8.0,-0.9483349323272705,0.0002,0.0
8,-2.692882299015764e-05,-0.9425085186958313,9.0,-0.9433349370956421,0.0002,0.0
9,-2.5824680051300675e-05,-0.9376012086868286,10.0,-0.9383349418640137,0.0002,0.0
10,-2.4990438760141842e-05,-0.9326938986778259,11.0,-0.9333349466323853,0.0002,0.0
11,-2.4113258405122906e-05,-0.9274799227714539,12.0,-0.9283349514007568,0.0002,0.0
12,-2.3371028873953037e-05,-0.9225726127624512,13.0,-0.9233349561691284,0.0002,0.0
13,-2.2561323930858634e-05,-0.9176653027534485,14.0,-0.9183349609375,0.0002,0.0
14,-2.1745485355495475e-05,-0.9124513268470764,15.0,-0.9133349657058716,0.0002,0.0
15,-2.0978719476261176e-05,-0.9075440168380737,16.0,-0.9083349704742432,0.0002,0.0
16,-2.0248759028618224e-05,-0.902636706829071,17.0,-0.9033349752426147,0.0002,0.0
17,-1.9445187717792578e-05,-0.8977293968200684,18.0,-0.8983349800109863,0.0002,0.0
18,-1.8715227270149626e-05,-0.8925154209136963,19.0,-0.8933349847793579,0.0002,0.0
19,-1.8028204067377374e-05,-0.8876081109046936,20.0,-0.8883349895477295,0.0002,0.0
20,-1.7390255379723385e-05,-0.8827008008956909,21.0,-0.8833349347114563,0.0002,0.0
21,-1.669096491241362e-05,-0.8774867653846741,22.0,-0.8783349394798279,0.0002,0.0
22,-1.6157295249286108e-05,-0.8725794553756714,23.0,-0.8733349442481995,0.0002,0.0
23,-1.5500943845836446e-05,-0.8676722049713135,24.0,-0.868334949016571,0.0002,0.0
24,-1.501021415606374e-05,-0.8627648949623108,25.0,-0.8633349537849426,0.0002,0.0
25,-1.447654540243093e-05,-0.857550859451294,26.0,-0.8583349585533142,0.0002,0.0
26,-1.3838595805282239e-05,-0.8526435494422913,27.0,-0.8533349633216858,0.0002,0.0
27,-1.3231317097961437e-05,-0.8477362394332886,28.0,-0.8483349680900574,0.0002,0.0
28,-1.2648575648199767e-05,-0.8428289890289307,29.0,-0.843334972858429,0.0002,0.0
29,-1.2047430573147722e-05,-0.8376149535179138,30.0,-0.8383349776268005,0.0002,0.0
30,-1.139107916969806e-05,-0.8327076435089111,31.0,-0.8333349823951721,0.0002,0.0
31,-1.0710191418183967e-05,-0.8274936676025391,32.0,-0.8283349871635437,0.0002,0.0
32,-1.0047705472970847e-05,-0.8225863575935364,33.0,-0.8233349323272705,0.0002,0.0
33,-9.37908589548897e-06,-0.8176790475845337,34.0,-0.8183349370956421,0.0002,0.0
34,-8.833148058329243e-06,-0.812771737575531,35.0,-0.8133349418640137,0.0002,0.0
35,-8.20746754470747e-06,-0.8075577616691589,36.0,-0.8083349466323853,0.0002,0.0
36,-7.618591553182341e-06,-0.8026504516601562,37.0,-0.8033349514007568,0.0002,0.0
37,-6.968373782001436e-06,-0.7977431416511536,38.0,-0.7983349561691284,0.0002,0.0
38,-6.361095529427985e-06,-0.7928358316421509,39.0,-0.7933349609375,0.0002,0.0
39,-5.772219083155505e-06,-0.787621796131134,40.0,-0.7883349657058716,0.0002,0.0
40,-5.189477178646484e-06,-0.7827145457267761,41.0,-0.7833349704742432,0.0002,0.0
41,-4.551528036245145e-06,-0.7775005102157593,42.0,-0.7783349752426147,0.0002,0.0
42,-3.8031644180591684e-06,-0.7725932002067566,43.0,-0.7733349800109863,0.0002,0.0
43,-3.079337602684973e-06,-0.7676858901977539,44.0,-0.7683349847793579,0.0002,0.0
44,-2.5272661332564894e-06,-0.762778639793396,45.0,-0.7633349895477295,0.0002,0.0
45,-1.668488380346389e-06,-0.7575646042823792,46.0,-0.7583349347114563,0.0002,0.0
46,-1.0550756996963173e-06,-0.7526572942733765,47.0,-0.7533349394798279,0.0002,0.0
47,-3.128463390567049e-07,-0.7477499842643738,48.0,-0.7483349442481995,0.0002,0.0
48,4.355171370207245e-07,-0.7425360083580017,49.0,-0.743334949016571,0.0002,0.0
49,1.171612325379101e-06,-0.737628698348999,50.0,-0.7383349537849426,0.0002,0.0
50,1.91997582987824e-06,-0.7327213883399963,51.0,-0.7333349585533142,0.0002,0.0
51,2.6744733077066485e-06,-0.7275074124336243,52.0,-0.7283349633216858,0.0002,0.0
52,3.4903123378171586e-06,-0.7226001024246216,53.0,-0.7233349680900574,0.0002,0.0
53,4.27548047809978e-06,-0.7176927924156189,54.0,-0.718334972858429,0.0002,0.0
54,5.164929007150931e-06,-0.7127854824066162,55.0,-0.7133349776268005,0.0002,0.0
55,6.0298407333903015e-06,-0.7075714468955994,56.0,-0.7083349823951721,0.0002,0.0
56,6.9070210884092376e-06,-0.7026641964912415,57.0,-0.7033349871635437,0.0002,0.0
57,7.833274139557034e-06,-0.6974501609802246,58.0,-0.6983349919319153,0.0002,0.0
58,8.78406353876926e-06,-0.6928495764732361,59.0,-0.6933349370956421,0.0002,0.0
59,9.863670129561797e-06,-0.6876355409622192,60.0,-0.6883349418640137,0.0002,0.0
60,1.0980081242450979e-05,-0.6824215650558472,61.0,-0.6833349466323853,0.0002,0.0
61,1.217010139953345e-05,-0.6775142550468445,62.0,-0.6783349514007568,0.0002,0.0
62,1.3415329704002943e-05,-0.6726069450378418,63.0,-0.6733349561691284,0.0002,0.0
63,1.4764837032998912e-05,-0.6676996350288391,64.0,-0.6683349609375,0.0002,0.0
64,1.5979394447640516e-05,-0.662485659122467,65.0,-0.6633349657058716,0.0002,0.0
65,1.7304366338066757e-05,-0.6575783491134644,66.0,-0.6583349704742432,0.0002,0.0
66,1.8752019968815148e-05,-0.6526710391044617,67.0,-0.6533349752426147,0.0002,0.0
67,2.0745610527228564e-05,-0.6474570035934448,68.0,-0.6483349800109863,0.0002,0.0
68,2.2377289496944286e-05,-0.6425497531890869,69.0,-0.6433349847793579,0.0002,0.0
69,2.408870932413265e-05,-0.6376424431800842,70.0,-0.6383349895477295,0.0002,0.0
70,2.5665180146461353e-05,-0.6324284076690674,71.0,-0.6333349943161011,0.0002,0.0
71,2.730299274844583e-05,-0.6275210976600647,72.0,-0.6283349394798279,0.0002,0.0
72,2.919230428233277e-05,-0.622613787651062,73.0,-0.6233349442481995,0.0002,0.0
73,3.118589302175678e-05,-0.6177065372467041,74.0,-0.618334949016571,0.0002,0.0
74,3.340031616971828e-05,-0.6124925017356873,75.0,-0.6133349537849426,0.0002,0.0
75,3.537550219334662e-05,-0.6075851917266846,76.0,-0.6083349585533142,0.0002,0.0
76,3.77800824935548e-05,-0.6026778817176819,77.0,-0.6033349633216858,0.0002,0.0
77,4.0086513763526455e-05,-0.5974639058113098,78.0,-0.5983349680900574,0.0002,0.0
78,4.269351848051883e-05,-0.5925565958023071,79.0,-0.593334972858429,0.0002,0.0
79,4.471777720027603e-05,-0.5876492857933044,80.0,-0.5883349776268005,0.0002,0.0
80,4.663776053348556e-05,-0.5824353098869324,81.0,-0.5833349823951721,0.0002,0.0
81,5.0293700041947886e-05,-0.5775279998779297,82.0,-0.5783349871635437,0.0002,0.0
82,5.320127456798218e-05,-0.572620689868927,83.0,-0.5733349919319153,0.0002,0.0
83,5.61640590603929e-05,-0.5677133798599243,84.0,-0.5683349967002869,0.0002,0.0
84,5.843368489877321e-05,-0.5624993443489075,85.0,-0.5633349418640137,0.0002,0.0
85,6.087506699259393e-05,-0.5575920939445496,86.0,-0.5583349466323853,0.0002,0.0
86,6.337165541481227e-05,-0.5526847839355469,87.0,-0.5533349514007568,0.0002,0.0
87,6.611361459363252e-05,-0.5477774739265442,88.0,-0.5483349561691284,0.0002,0.0
88,6.915000267326832e-05,-0.5425634384155273,89.0,-0.5433349609375,0.0002,0.0
89,7.233975338749588e-05,-0.5376561880111694,90.0,-0.5383349657058716,0.0002,0.0
90,7.563990948256105e-05,-0.5327488780021667,91.0,-0.5333349704742432,0.0002,0.0
91,7.850454858271405e-05,-0.5275348424911499,92.0,-0.5283349752426147,0.0002,0.0
92,8.090912888292223e-05,-0.5226275324821472,93.0,-0.5233349800109863,0.0002,0.0
93,8.362041262444109e-05,-0.5177202224731445,94.0,-0.5183349847793579,0.0002,0.0
94,8.664453343953937e-05,-0.5128129720687866,95.0,-0.5133349895477295,0.0002,0.0
95,8.968092879513279e-05,-0.5075989365577698,96.0,-0.5083349943161011,0.0002,0.0
96,9.251489245798439e-05,-0.5026916265487671,97.0,-0.5033349990844727,0.0002,0.0
97,9.529978706268594e-05,-0.49747762084007263,98.0,-0.49833497405052185,0.0002,0.0
98,9.800493717193604e-05,-0.49257034063339233,99.0,-0.49333497881889343,0.0002,0.0
99,0.00010107200068887323,-0.48766303062438965,100.0,-0.488334983587265,0.0002,0.0
100,0.00010423107596579939,-0.4824490249156952,101.0,-0.4833349585533142,0.0002,0.0
