,current,potential,elapsed_time,applied_potential,current_range,segment
0,-5.404166131484089e-06,-0.6876355409622192,0.8,-0.6879808902740479,2e-05,0.0
1,-4.868657015322242e-06,-0.6873288750648499,1.6,-0.6878808736801147,2e-05,0.0
2,-4.663163963414263e-06,-0.6873288750648499,2.4,-0.6877809166908264,2e-05,0.0
3,-4.516557964961976e-06,-0.6873288750648499,3.2,-0.6876809000968933,2e-05,0.0
4,-4.401849764690269e-06,-0.6873288750648499,4.0,-0.6875808835029602,2e-05,0.0
5,-4.249723588145571e-06,-0.6870221495628357,4.8,-0.6874808669090271,2e-05,0.0
6,-4.088396053703036e-06,-0.6870221495628357,5.6,-0.6873809099197388,2e-05,0.0
7,-3.949151505366899e-06,-0.6870221495628357,6.4,-0.6872808933258057,2e-05,0.0
8,-3.83751012122957e-06,-0.6867154240608215,7.2,-0.6871808767318726,2e-05,0.0
9,-3.6902913507219637e-06,-0.6867154240608215,8.0,-0.6870809197425842,2e-05,0.0
10,-3.593985411498579e-06,-0.6867154240608215,8.8,-0.6869809031486511,2e-05,0.0
11,-3.4964527912961785e-06,-0.6864087581634521,9.6,-0.686880886554718,2e-05,0.0
12,-3.4921590668091085e-06,-0.6864087581634521,10.4,-0.6867808699607849,2e-05,0.0
13,-3.4657821288419655e-06,-0.6864087581634521,11.2,-0.6866809129714966,2e-05,0.0
14,-3.4915456126327626e-06,-0.686102032661438,12.0,-0.6865808963775635,2e-05,0.0
15,-3.4559675441414583e-06,-0.686102032661438,12.8,-0.6864808797836304,2e-05,0.0
16,-3.4964527912961785e-06,-0.686102032661438,13.6,-0.6863808631896973,2e-05,0.0
17,-3.5688356092578033e-06,-0.686102032661438,14.4,-0.6862809062004089,2e-05,0.0
18,-3.6301769341662293e-06,-0.6857953071594238,15.2,-0.6861808896064758,2e-05,0.0
19,-3.730163143700338e-06,-0.6857953071594238,16.0,-0.6860808730125427,2e-05,0.0
20,-3.7902775602560723e-06,-0.6854886412620544,16.8,-0.6859809160232544,2e-05,0.0
21,-3.88535636375309e-06,-0.6854886412620544,17.6,-0.6858808994293213,2e-05,0.0
22,-3.962646587751806e-06,-0.6854886412620544,18.4,-0.6857808828353882,2e-05,0.0
23,-3.965713403886184e-06,-0.6851819157600403,19.2,-0.6856808662414551,2e-05,0.0
24,-3.947924597014207e-06,-0.6851819157600403,20.0,-0.6855809092521667,2e-05,0.0
25,-3.897624537785305e-06,-0.6851819157600403,20.8,-0.6854808926582336,2e-05,0.0
26,-3.79641164727218e-06,-0.6848751902580261,21.6,-0.6853808760643005,2e-05,0.0
27,-3.7264826460159384e-06,-0.6848751902580261,22.4,-0.6852809190750122,2e-05,0.0
28,-3.615454943428631e-06,-0.6848751902580261,23.2,-0.6851809024810791,2e-05,0.0
29,-3.4706895348790567e-06,-0.6845685243606567,24.0,-0.685080885887146,2e-05,0.0
30,-3.3584349239390576e-06,-0.6845685243606567,24.8,-0.6849808692932129,2e-05,0.0
31,-3.259062168581295e-06,-0.6845685243606567,25.6,-0.6848809123039246,2e-05,0.0
32,-3.108776127191959e-06,-0.6842617988586426,26.4,-0.6847808957099915,2e-05,0.0
33,-3.034553174074972e-06,-0.6842617988586426,27.2,-0.6846808791160583,2e-05,0.0
34,-2.9272059691720642e-06,-0.6842617988586426,28.0,-0.6845808625221252,2e-05,0.0
35,-2.870771822927054e-06,-0.6839550733566284,28.8,-0.6844809055328369,2e-05,0.0
36,-2.8879474029963603e-06,-0.6839550733566284,29.6,-0.6843808889389038,2e-05,0.0
37,-2.929659558503772e-06,-0.6839550733566284,30.4,-0.6842808723449707,2e-05,0.0
38,-2.931499693659134e-06,-0.6839550733566284,31.2,-0.6841809153556824,2e-05,0.0
39,-2.9683044431294547e-06,-0.6836483478546143,32.0,-0.6840808987617493,2e-05,0.0
40,-3.037620217583026e-06,-0.6836483478546143,32.8,-0.6839808821678162,2e-05,0.0
41,-3.122884436379536e-06,-0.6833416819572449,33.6,-0.6838808655738831,2e-05,0.0
42,-3.225324462619028e-06,-0.6833416819572449,34.4,-0.6837809085845947,2e-05,0.0
43,-3.288505922682816e-06,-0.6833416819572449,35.2,-0.6836808919906616,2e-05,0.0
44,-3.3541411994519876e-06,-0.6833416819572449,36.0,-0.6835808753967285,2e-05,0.0
45,-3.447379867793643e-06,-0.6830349564552307,36.8,-0.6834809184074402,2e-05,0.0
46,-3.4418592349538812e-06,-0.6830349564552307,37.6,-0.6833809018135071,2e-05,0.0
47,-3.4203897030238295e-06,-0.6830349564552307,38.4,-0.683280885219574,2e-05,0.0
48,-3.3823580452008173e-06,-0.6827282309532166,39.2,-0.6831808686256409,2e-05,0.0
49,-3.2835987440194003e-06,-0.6827282309532166,40.0,-0.6830809116363525,2e-05,0.0
50,-3.197720843672869e-06,-0.6824215650558472,40.8,-0.6829808950424194,2e-05,0.0
51,-3.0866931410855614e-06,-0.6824215650558472,41.6,-0.6828808784484863,2e-05,0.0
52,-2.95235577141284e-06,-0.6824215650558472,42.4,-0.6827808618545532,2e-05,0.0
53,-2.835807435985771e-06,-0.682114839553833,43.2,-0.6826809048652649,2e-05,0.0
54,-2.711284651013557e-06,-0.682114839553833,44.0,-0.6825808882713318,2e-05,0.0
55,-2.5481167540419847e-06,-0.682114839553833,44.8,-0.6824808716773987,2e-05,0.0
56,-2.4634659894218203e-06,-0.6818081140518188,45.6,-0.6823809146881104,2e-05,0.0
57,-2.362866325711366e-06,-0.6818081140518188,46.4,-0.6822808980941772,2e-05,0.0
58,-2.302751681781956e-06,-0.6818081140518188,47.2,-0.6821808815002441,2e-05,0.0
59,-2.275761744385818e-06,-0.6815014481544495,48.0,-0.682080864906311,2e-05,0.0
60,-2.310112677150755e-06,-0.6815014481544495,48.8,-0.6819809079170227,2e-05,0.0
61,-2.2941640054341406e-06,-0.6815014481544495,49.6,-0.6818808913230896,2e-05,0.0
62,-2.3383297502732603e-06,-0.6815014481544495,50.4,-0.6817808747291565,2e-05,0.0
63,-2.3732941372145433e-06,-0.6811947226524353,51.2,-0.6816809177398682,2e-05,0.0
64,-2.4211403797380626e-06,-0.6811947226524353,52.0,-0.6815809011459351,2e-05,0.0
65,-2.499043830539449e-06,-0.6811947226524353,52.8,-0.681480884552002,2e-05,0.0
66,-2.5996434942499036e-06,-0.6808879971504211,53.6,-0.6813808679580688,2e-05,0.0
67,-2.708217607505503e-06,-0.6808879971504211,54.4,-0.6812809109687805,2e-05,0.0
68,-2.7812136522697983e-06,-0.6808879971504211,55.2,-0.6811808943748474,2e-05,0.0
69,-2.82292580777721e-06,-0.6805813312530518,56.0,-0.6810808777809143,2e-05,0.0
70,-2.8204719910718268e-06,-0.6805813312530518,56.8,-0.6809808611869812,2e-05,0.0
71,-2.8112708605476655e-06,-0.6805813312530518,57.6,-0.6808809041976929,2e-05,0.0
72,-2.739501724136062e-06,-0.6802746057510376,58.4,-0.6807808876037598,2e-05,0.0
73,-2.6622117275110213e-06,-0.6802746057510376,59.2,-0.6806808710098267,2e-05,0.0
74,-2.563452198955929e-06,-0.6802746057510376,60.0,-0.6805809140205383,2e-05,0.0
75,-2.4573316750320373e-06,-0.6799678802490234,60.8,-0.6804808974266052,2e-05,0.0
76,-2.3475308807974216e-06,-0.6799678802490234,61.6,-0.6803808808326721,2e-05,0.0
77,-2.2297556370176608e-06,-0.6799678802490234,62.4,-0.680280864238739,2e-05,0.0
78,-2.0518659766821656e-06,-0.6799678802490234,63.2,-0.6801809072494507,2e-05,0.0
79,-1.9690553472173633e-06,-0.679661214351654,64.0,-0.6800808906555176,2e-05,0.0
80,-1.8844043552235235e-06,-0.679661214351654,64.8,-0.6799808740615845,2e-05,0.0
81,-1.8457593569110031e-06,-0.6793544888496399,65.6,-0.6798809170722961,2e-05,0.0
82,-1.8003668174060294e-06,-0.6793544888496399,66.4,-0.679780900478363,2e-05,0.0
83,-1.806500904422137e-06,-0.6793544888496399,67.2,-0.6796808838844299,2e-05,0.0
84,-1.8077278127748286e-06,-0.6790477633476257,68.0,-0.6795808672904968,2e-05,0.0
85,-1.8512801034376025e-06,-0.6790477633476257,68.8,-0.6794809103012085,2e-05,0.0
86,-1.8868579445552314e-06,-0.6787410974502563,69.6,-0.6793808937072754,2e-05,0.0
87,-1.9046469788008835e-06,-0.6787410974502563,70.4,-0.6792808771133423,2e-05,0.0
88,-2.0083136860193918e-06,-0.6787410974502563,71.2,-0.679180920124054,2e-05,0.0
89,-2.0935781321895774e-06,-0.6787410974502563,72.0,-0.6790809035301208,2e-05,0.0
90,-2.170868128814618e-06,-0.6784343719482422,72.8,-0.6789808869361877,2e-05,0.0
91,-2.2641067971562734e-06,-0.6784343719482422,73.6,-0.6788808703422546,2e-05,0.0
92,-2.2763749711884884e-06,-0.6784343719482422,74.4,-0.6787809133529663,2e-05,0.0
93,-2.247544671263313e-06,-0.678127646446228,75.2,-0.6786808967590332,2e-05,0.0
94,-2.235276497231098e-06,-0.678127646446228,76.0,-0.6785808801651001,2e-05,0.0
95,-2.1720948097936343e-06,-0.678127646446228,76.8,-0.678480863571167,2e-05,0.0
96,-2.1168877992749913e-06,-0.678127646446228,77.6,-0.6783809065818787,2e-05,0.0
97,-2.0218087684042985e-06,-0.6778209805488586,78.4,-0.6782808899879456,2e-05,0.0
98,-1.9046469788008835e-06,-0.6778209805488586,79.2,-0.6781808733940125,2e-05,0.0
99,-1.7764436961442698e-06,-0.6778209805488586,80.0,-0.6780809164047241,2e-05,0.0
100,-1.6641891988911084e-06,-0.6775142550468445,80.8,-0.677980899810791,2e-05,0.0
101,-1.4764849538551061e-06,-0.6775142550468445,81.6,-0.6778808832168579,2e-05,0.0
102,-1.3182244629206252e-06,-0.6775142550468445,82.4,-0.6777808666229248,2e-05,0.0
103,-1.2102638038413716e-06,-0.6772075295448303,83.2,-0.6776809096336365,2e-05,0.0
104,-1.1568969284780906e-06,-0.6772075295448303,84.0,-0.6775808930397034,2e-05,0.0
105,-1.1139579783048248e-06,-0.6772075295448303,84.8,-0.6774808764457703,2e-05,0.0
106,-1.0520033129068906e-06,-0.6769008636474609,85.6,-0.6773809194564819,2e-05,0.0
107,-1.0188790611209697e-06,-0.6769008636474609,86.4,-0.6772809028625488,2e-05,0.0
108,-1.0207193099631695e-06,-0.6769008636474609,87.2,-0.6771808862686157,2e-05,0.0
109,-1.036054641190276e-06,-0.6765941381454468,88.0,-0.6770808696746826,2e-05,0.0
110,-1.05752405943349e-06,-0.6765941381454468,88.8,-0.6769809126853943,2e-05,0.0
111,-1.0826739753611037e-06,-0.6765941381454468,89.6,-0.6768808960914612,2e-05,0.0
112,-1.1458554354248918e-06,-0.6762874126434326,90.4,-0.6767808794975281,2e-05,0.0
113,-1.2440015098036383e-06,-0.6762874126434326,91.2,-0.676680862903595,2e-05,0.0
114,-1.3470548765326384e-06,-0.6762874126434326,92.0,-0.6765809059143066,2e-05,0.0
115,-1.3709778841075604e-06,-0.6759807467460632,92.8,-0.6764808893203735,2e-05,0.0
116,-1.3777254253000137e-06,-0.6759807467460632,93.6,-0.6763808727264404,2e-05,0.0
117,-1.3764986306341598e-06,-0.6759807467460632,94.4,-0.6762809157371521,2e-05,0.0
118,-1.3335597941477317e-06,-0.6756740212440491,95.2,-0.676180899143219,2e-05,0.0
119,-1.248295347977546e-06,-0.6756740212440491,96.0,-0.6760808825492859,2e-05,0.0
120,-1.1145714324811706e-06,-0.6756740212440491,96.8,-0.6759808659553528,2e-05,0.0
121,-9.753267704581958e-07,-0.6753672957420349,97.6,-0.6758809089660645,2e-05,0.0
122,-8.526442343281815e-07,-0.6753672957420349,98.4,-0.6757808923721313,2e-05,0.0
123,-7.305750955310941e-07,-0.6753672957420349,99.2,-0.6756808757781982,2e-05,0.0
124,-5.704743557544134e-07,-0.6750605702400208,100.0,-0.6755809187889099,2e-05,0.0
125,-4.6803447162346856e-07,-0.6750605702400208,100.8,-0.6754809021949768,2e-05,0.0
126,-3.4412511240589083e-07,-0.6750605702400208,101.6,-0.6753808856010437,2e-05,0.0
127,-2.9566550097115396e-07,-0.6747539043426514,102.4,-0.6752808690071106,2e-05,0.0
128,-2.2082915052124008e-07,-0.6747539043426514,103.2,-0.6751809120178223,2e-05,0.0
129,-1.9322558841849968e-07,-0.6747539043426514,104.0,-0.6750808954238892,2e-05,0.0
130,-1.6500860056112288e-07,-0.6744471788406372,104.8,-0.674980878829956,2e-05,0.0
131,-1.8402438684006484e-07,-0.6744471788406372,105.6,-0.674880862236023,2e-05,0.0
132,-2.3984495101103676e-07,-0.6744471788406372,106.4,-0.6747809052467346,2e-05,0.0
133,-2.913716059538274e-07,-0.674140453338623,107.2,-0.6746808886528015,2e-05,0.0
134,-3.747957464383944e-07,-0.674140453338623,108.0,-0.6745808720588684,2e-05,0.0
135,-4.06079777803825e-07,-0.674140453338623,108.8,-0.6744809150695801,2e-05,0.0
136,-4.90117315621319e-07,-0.6738337874412537,109.6,-0.674380898475647,2e-05,0.0
137,-5.833560408063931e-07,-0.6738337874412537,110.4,-0.6742808818817139,2e-05,0.0
138,-5.888767873329925e-07,-0.6738337874412537,111.2,-0.6741808652877808,2e-05,0.0
139,-6.158668952593871e-07,-0.6738337874412537,112.0,-0.6740809082984924,2e-05,0.0
140,-5.655670634041599e-07,-0.6735270619392395,112.8,-0.6739808917045593,2e-05,0.0
141,-5.005453544981719e-07,-0.6735270619392395,113.6,-0.6738808751106262,2e-05,0.0
142,-4.600601073434518e-07,-0.6735270619392395,114.4,-0.6737809181213379,2e-05,0.0
143,-3.907444749984279e-07,-0.6732203364372253,115.2,-0.6736809015274048,2e-05,0.0
144,-2.196023274336767e-07,-0.6732203364372253,116.0,-0.6735808849334717,2e-05,0.0
145,-9.630637975988066e-08,-0.6732203364372253,116.8,-0.6734808683395386,2e-05,0.0
146,6.7469523301610934e-09,-0.672913670539856,117.6,-0.6733809113502502,2e-05,0.0
147,1.686879045337264e-07,-0.672913670539856,118.4,-0.6732808947563171,2e-05,0.0
148,2.6069980663123715e-07,-0.6726069450378418,119.2,-0.673180878162384,2e-05,0.0
149,3.919701043741952e-07,-0.6726069450378418,120.0,-0.6730808615684509,2e-05,0.0
150,4.968636631019763e-07,-0.6726069450378418,120.8,-0.6729809045791626,2e-05,0.0
151,5.594317826762563e-07,-0.6723002195358276,121.6,-0.6728808879852295,2e-05,0.0
152,5.649524723594368e-07,-0.6723002195358276,122.4,-0.6727808713912964,2e-05,0.0
153,5.833548470945971e-07,-0.6723002195358276,123.2,-0.6726809144020081,2e-05,0.0
154,6.232266969163902e-07,-0.6719935536384583,124.0,-0.672580897808075,2e-05,0.0
155,6.097316145314835e-07,-0.6719935536384583,124.8,-0.6724808812141418,2e-05,0.0
156,5.336684694157157e-07,-0.6719935536384583,125.6,-0.6723808646202087,2e-05,0.0
157,4.287748822662252e-07,-0.6716868281364441,126.4,-0.6722809076309204,2e-05,0.0
158,3.6375314493852784e-07,-0.6716868281364441,127.2,-0.6721808910369873,2e-05,0.0
159,3.0241187687352067e-07,-0.6716868281364441,128.0,-0.6720808744430542,2e-05,0.0
160,1.956780550926851e-07,-0.6716868281364441,128.8,-0.6719809174537659,2e-05,0.0
161,1.4967210404392972e-07,-0.6713801026344299,129.6,-0.6718809008598328,2e-05,0.0
162,1.1777464692386275e-07,-0.6713801026344299,130.4,-0.6717808842658997,2e-05,0.0
163,1.4844528095636633e-07,-0.6710734367370605,131.2,-0.6716808676719666,2e-05,0.0
164,2.1776091330139025e-07,-0.6710734367370605,132.0,-0.6715809106826782,2e-05,0.0
165,2.9995820227668446e-07,-0.6710734367370605,132.8,-0.6714808940887451,2e-05,0.0
166,3.8767623777857807e-07,-0.6707667112350464,133.6,-0.671380877494812,2e-05,0.0
167,5.085184966446832e-07,-0.6707667112350464,134.4,-0.6712808609008789,2e-05,0.0
168,6.097316145314835e-07,-0.6707667112350464,135.2,-0.6711809039115906,2e-05,0.0
169,7.373214430117514e-07,-0.6707667112350464,136.0,-0.6710808873176575,2e-05,0.0
170,9.330000807494798e-07,-0.6704599857330322,136.8,-0.6709808707237244,2e-05,0.0
171,1.0415741371616605e-06,-0.6704599857330322,137.6,-0.670880913734436,2e-05,0.0
172,1.1857260915348888e-06,-0.6704599857330322,138.4,-0.6707808971405029,2e-05,0.0
173,1.330491500084463e-06,-0.6701533198356628,139.2,-0.6706808805465698,2e-05,0.0
174,1.447653289687878e-06,-0.6701533198356628,140.0,-0.6705808639526367,2e-05,0.0
175,1.5224896969812107e-06,-0.6701533198356628,140.8,-0.6704809069633484,2e-05,0.0
176,1.5776968211866915e-06,-0.6698465943336487,141.6,-0.6703808903694153,2e-05,0.0
177,1.604686985956505e-06,-0.6698465943336487,142.4,-0.6702808737754822,2e-05,0.0
178,1.6335173995685182e-06,-0.6698465943336487,143.2,-0.6701809167861938,2e-05,0.0
179,1.6016199424484512e-06,-0.6695398688316345,144.0,-0.6700809001922607,2e-05,0.0
180,1.4954995322113973e-06,-0.6695398688316345,144.8,-0.6699808835983276,2e-05,0.0
181,1.4507204468827695e-06,-0.6695398688316345,145.6,-0.6698808670043945,2e-05,0.0
182,1.4065547020436497e-06,-0.6692332029342651,146.4,-0.6697809100151062,2e-05,0.0
183,1.339692744295462e-06,-0.6692332029342651,147.2,-0.6696808934211731,2e-05,0.0
184,1.3010477459829417e-06,-0.6692332029342651,148.0,-0.66958087682724,2e-05,0.0
185,1.2513612546172226e-06,-0.668926477432251,148.8,-0.6694809198379517,2e-05,0.0
186,1.2384796264086617e-06,-0.668926477432251,149.6,-0.6693809032440186,2e-05,0.0
187,1.2777380788975279e-06,-0.668926477432251,150.4,-0.6692808866500854,2e-05,0.0
188,1.330491500084463e-06,-0.6686197519302368,151.2,-0.6691808700561523,2e-05,0.0
189,1.4280241202868638e-06,-0.6686197519302368,152.0,-0.669080913066864,2e-05,0.0
190,1.5457993640666245e-06,-0.6686197519302368,152.8,-0.6689808964729309,2e-05,0.0
191,1.679523279563e-06,-0.6683130860328674,153.6,-0.6688808798789978,2e-05,0.0
192,1.793004685168853e-06,-0.6683130860328674,154.4,-0.6687808632850647,2e-05,0.0
193,1.9696674371516565e-06,-0.6683130860328674,155.2,-0.6686809062957764,2e-05,0.0
194,2.078855004583602e-06,-0.6680063605308533,156.0,-0.6685808897018433,2e-05,0.0
195,2.221166823801468e-06,-0.6680063605308533,156.8,-0.6684808731079102,2e-05,0.0
196,2.343235792068299e-06,-0.6680063605308533,157.6,-0.6683809161186218,2e-05,0.0
197,2.5119243218796328e-06,-0.6676996350288391,158.4,-0.6682808995246887,2e-05,0.0
198,2.5892143185046734e-06,-0.6676996350288391,159.2,-0.6681808829307556,2e-05,0.0
199,2.608230033729342e-06,-0.6673929691314697,160.0,-0.6680808663368225,2e-05,0.0
200,2.6309264740120852e-06,-0.6676996350288391,160.8,-0.6679809093475342,2e-05,0.0
201,2.6100703962583793e-06,-0.6673929691314697,161.6,-0.6678808927536011,2e-05,0.0
202,2.5861472749966197e-06,-0.6673929691314697,162.4,-0.667780876159668,2e-05,0.0
203,2.5076303700188873e-06,-0.6670862436294556,163.2,-0.6676809191703796,2e-05,0.0
204,2.4524233595002443e-06,-0.6670862436294556,164.0,-0.6675809025764465,2e-05,0.0
205,2.363478415645659e-06,-0.6670862436294556,164.8,-0.6674808859825134,2e-05,0.0
206,2.277600742672803e-06,-0.6667795181274414,165.6,-0.6673808693885803,2e-05,0.0
207,2.2401825390261365e-06,-0.6667795181274414,166.4,-0.667280912399292,2e-05,0.0
208,2.1996972918714164e-06,-0.6667795181274414,167.2,-0.6671808958053589,2e-05,0.0
209,2.183135165978456e-06,-0.6664727926254272,168.0,-0.6670808792114258,2e-05,0.0
210,2.2119654659036314e-06,-0.6664727926254272,168.8,-0.6669808626174927,2e-05,0.0
211,2.2966164578974713e-06,-0.6664727926254272,169.6,-0.6668809056282043,2e-05,0.0
212,2.4094845230138162e-06,-0.6661661267280579,170.4,-0.6667808890342712,2e-05,0.0
213,2.526646312617231e-06,-0.6661661267280579,171.2,-0.6666808724403381,2e-05,0.0
214,2.6174313916271785e-06,-0.6661661267280579,172.0,-0.6665809154510498,2e-05,0.0
215,2.719871190492995e-06,-0.6658594012260437,172.8,-0.6664808988571167,2e-05,0.0
216,2.8689305509033147e-06,-0.6658594012260437,173.6,-0.6663808822631836,2e-05,0.0
217,3.0216701816243585e-06,-0.6658594012260437,174.4,-0.6662808656692505,2e-05,0.0
218,3.17625017487444e-06,-0.6655526757240295,175.2,-0.6661809086799622,2e-05,0.0
219,3.2510865821677726e-06,-0.6655526757240295,176.0,-0.666080892086029,2e-05,0.0
220,3.3173350857396144e-06,-0.6655526757240295,176.8,-0.665980875492096,2e-05,0.0
221,3.423455609663506e-06,-0.6652460098266602,177.6,-0.6658809185028076,2e-05,0.0
222,3.5007456062885467e-06,-0.6652460098266602,178.4,-0.6657809019088745,2e-05,0.0
223,3.4964516544278013e-06,-0.6652460098266602,179.2,-0.6656808853149414,2e-05,0.0
224,3.5062662391283084e-06,-0.6652460098266602,180.0,-0.6655808687210083,2e-05,0.0
225,3.5271223168820143e-06,-0.664939284324646,180.8,-0.66548091173172,2e-05,0.0
226,3.4860236155509483e-06,-0.664939284324646,181.6,-0.6653808951377869,2e-05,0.0
227,3.436337237872067e-06,-0.6646325588226318,182.4,-0.6652808785438538,2e-05,0.0
228,3.3872643143695313e-06,-0.6646325588226318,183.2,-0.6651808619499207,2e-05,0.0
229,3.308133955215453e-06,-0.6646325588226318,184.0,-0.6650809049606323,2e-05,0.0
230,3.290958375146147e-06,-0.6646325588226318,184.8,-0.6649808883666992,2e-05,0.0
231,3.285437742306385e-06,-0.6643258929252625,185.6,-0.6648808717727661,2e-05,0.0
232,3.3056803658837453e-06,-0.6643258929252625,186.4,-0.6647809147834778,2e-05,0.0
233,3.319175448268652e-06,-0.6640191674232483,187.2,-0.6646808981895447,2e-05,0.0
234,3.3639546472841175e-06,-0.6640191674232483,188.0,-0.6645808815956116,2e-05,0.0
235,3.4424713248881744e-06,-0.6640191674232483,188.8,-0.6644808650016785,2e-05,0.0
236,3.594597728806548e-06,-0.6637124419212341,189.6,-0.6643809080123901,2e-05,0.0
237,3.7228010114631616e-06,-0.6637124419212341,190.4,-0.664280891418457,2e-05,0.0
238,3.7988640997355105e-06,-0.6637124419212341,191.2,-0.6641808748245239,2e-05,0.0
239,3.949763595301192e-06,-0.6634057760238647,192.0,-0.6640809178352356,2e-05,0.0
240,4.042388809466502e-06,-0.6634057760238647,192.8,-0.6639809012413025,2e-05,0.0
