,current,potential,elapsed_time,applied_potential,current_range,segment
0,-4.5871005568187684e-05,-0.8633782863616943,1.0,-0.8637194633483887,0.0002,0.0
1,-3.797638419200666e-05,-0.8584709763526917,2.0,-0.8587194681167603,0.0002,0.0
2,-3.3608885132707655e-05,-0.8532570004463196,3.0,-0.8537194728851318,0.0002,0.0
3,-3.0443678042502142e-05,-0.8483496904373169,4.0,-0.8487194776535034,0.0002,0.0
4,-2.805136864481028e-05,-0.8434423804283142,5.0,-0.843719482421875,0.0002,0.0
5,-2.5978033590945415e-05,-0.8382283449172974,6.0,-0.8387194871902466,0.0002,0.0
6,-2.4162331101251766e-05,-0.8333210945129395,7.0,-0.8337194919586182,0.0002,0.0
7,-2.26962747547077e-05,-0.8284137845039368,8.0,-0.828719437122345,0.0002,0.0
8,-2.1383571947808377e-05,-0.8235064744949341,9.0,-0.8237194418907166,0.0002,0.0
9,-2.018128361669369e-05,-0.8182924389839172,10.0,-0.8187194466590881,0.0002,0.0
10,-1.900352981465403e-05,-0.8133851289749146,11.0,-0.8137194514274597,0.0002,0.0
11,-1.8083412214764394e-05,-0.8081711530685425,12.0,-0.8087194561958313,0.0002,0.0
12,-1.7083548300433904e-05,-0.8032638430595398,13.0,-0.8037194609642029,0.0002,0.0
13,-1.6163430700544268e-05,-0.7983565330505371,14.0,-0.7987194657325745,0.0002,0.0
14,-1.541506571811624e-05,-0.7934492230415344,15.0,-0.793719470500946,0.0002,0.0
15,-1.4580825336452108e-05,-0.7882352471351624,16.0,-0.7887194752693176,0.0002,0.0
16,-1.3771120393357705e-05,-0.7833279371261597,17.0,-0.7837194800376892,0.0002,0.0
17,-1.3145439879735932e-05,-0.778420627117157,18.0,-0.7787194848060608,0.0002,0.0
18,-1.2556563888210803e-05,-0.7732066512107849,19.0,-0.7737194895744324,0.0002,0.0
19,-1.1863407053169794e-05,-0.7682993412017822,20.0,-0.768719494342804,0.0002,0.0
20,-1.131747012550477e-05,-0.7633920311927795,21.0,-0.7637194395065308,0.0002,0.0
21,-1.0783800462377258e-05,-0.7581779956817627,22.0,-0.7587194442749023,0.0002,0.0
22,-1.021946081891656e-05,-0.7532707452774048,23.0,-0.7537194490432739,0.0002,0.0
23,-9.618316653359216e-06,-0.7483634352684021,24.0,-0.7487194538116455,0.0002,0.0
24,-9.22573235584423e-06,-0.7434561252593994,25.0,-0.7437194585800171,0.0002,0.0
25,-8.673660886415746e-06,-0.7382420897483826,26.0,-0.7387194633483887,0.0002,0.0
26,-8.18293119664304e-06,-0.7333347797393799,27.0,-0.7337194681167603,0.0002,0.0
27,-7.741274202999193e-06,-0.728427529335022,28.0,-0.7287194728851318,0.0002,0.0
28,-7.262812232511351e-06,-0.7232134938240051,29.0,-0.7237194776535034,0.0002,0.0
29,-6.7475452851795126e-06,-0.7183061838150024,30.0,-0.718719482421875,0.0002,0.0
30,-6.281351943471236e-06,-0.7133988738059998,31.0,-0.7137194871902466,0.0002,0.0
31,-5.78448725718772e-06,-0.7081848978996277,32.0,-0.7087194919586182,0.0002,0.0
32,-5.3121598284633365e-06,-0.703277587890625,33.0,-0.7037194967269897,0.0002,0.0
33,-4.803026968147606e-06,-0.6983702778816223,34.0,-0.6987194418907166,0.0002,0.0
34,-4.373638148535974e-06,-0.6931563019752502,35.0,-0.6937194466590881,0.0002,0.0
35,-3.864505742967594e-06,-0.6882489919662476,36.0,-0.6887194514274597,0.0002,0.0
36,-3.3676415114314295e-06,-0.6833416819572449,37.0,-0.6837194561958313,0.0002,0.0
37,-2.9627890398842283e-06,-0.678127646446228,38.0,-0.6787194609642029,0.0002,0.0
38,-2.441388232909958e-06,-0.6732203364372253,39.0,-0.6737194657325745,0.0002,0.0
39,-1.9261217403254705e-06,-0.6683130860328674,40.0,-0.668719470500946,0.0002,0.0
40,-1.4476597698376281e-06,-0.6630990505218506,41.0,-0.6637194752693176,0.0002,0.0
41,-9.569296253175708e-07,-0.6581917405128479,42.0,-0.6587194800376892,0.0002,0.0
42,-3.680534916838951e-07,-0.6532844305038452,43.0,-0.6537194848060608,0.0002,0.0
43,7.973777371717006e-08,-0.6483771204948425,44.0,-0.6487194895744324,0.0002,0.0
44,5.336631829777616e-07,-0.6434698700904846,45.0,-0.643719494342804,0.0002,0.0
45,1.0489297892490868e-06,-0.6382558345794678,46.0,-0.6387194395065308,0.0002,0.0
46,1.6010012586775701e-06,-0.6333485245704651,47.0,-0.6337194442749023,0.0002,0.0
47,2.0426582523214165e-06,-0.628134548664093,48.0,-0.6287194490432739,0.0002,0.0
48,2.6315344712202204e-06,-0.6232272386550903,49.0,-0.6237194538116455,0.0002,0.0
49,3.1590693652105983e-06,-0.6183199286460876,50.0,-0.6187194585800171,0.0002,0.0
50,3.6988726606068667e-06,-0.613412618637085,51.0,-0.6137194633483887,0.0002,0.0
51,4.27548047809978e-06,-0.6081986427307129,52.0,-0.6087194681167603,0.0002,0.0
52,4.919563707517227e-06,-0.6032913327217102,53.0,-0.6037194728851318,0.0002,0.0
53,5.4593670029134955e-06,-0.5983840227127075,54.0,-0.5987194776535034,0.0002,0.0
54,6.072779797250405e-06,-0.5931699872016907,55.0,-0.593719482421875,0.0002,0.0
55,6.637119440711103e-06,-0.588262677192688,56.0,-0.5887194871902466,0.0002,0.0
56,7.262800409080228e-06,-0.5833554267883301,57.0,-0.5837194919586182,0.0002,0.0
57,7.863945029384922e-06,-0.5781413912773132,58.0,-0.5787194967269897,0.0002,0.0
58,8.569369128963444e-06,-0.5732340812683105,59.0,-0.5737194418907166,0.0002,0.0
59,9.231855074176565e-06,-0.5683267712593079,60.0,-0.5687194466590881,0.0002,0.0
60,9.937279173755087e-06,-0.56341952085495,61.0,-0.5637194514274597,0.0002,0.0
61,1.06733750726562e-05,-0.5582054853439331,62.0,-0.5587194561958313,0.0002,0.0
62,1.1513749996083789e-05,-0.5532981753349304,63.0,-0.5537194609642029,0.0002,0.0
63,1.2360259461274836e-05,-0.5483908653259277,64.0,-0.5487194657325745,0.0002,0.0
64,1.3188367120164912e-05,-0.5431768894195557,65.0,-0.543719470500946,0.0002,0.0
65,1.4120753803581465e-05,-0.538269579410553,66.0,-0.5387194752693176,0.0002,0.0
66,1.4997934158600401e-05,-0.5333622694015503,67.0,-0.5337194800376892,0.0002,0.0
67,1.5936455383780412e-05,-0.5284549593925476,68.0,-0.5287194848060608,0.0002,0.0
68,1.729209725453984e-05,-0.5232409834861755,69.0,-0.5237194895744324,0.0002,0.0
69,1.8610935512697324e-05,-0.5183336734771729,70.0,-0.518719494342804,0.0002,0.0
70,1.9702809368027374e-05,-0.5134263634681702,71.0,-0.5137194991111755,0.0002,0.0
71,2.0886694983346388e-05,-0.5082123279571533,72.0,-0.5087194442749023,0.0002,0.0
72,2.2009240637999028e-05,-0.5033050775527954,73.0,-0.5037194490432739,0.0002,0.0
73,2.3622516891919076e-05,-0.49839773774147034,74.0,-0.4987194836139679,0.0002,0.0
74,2.5168315914925188e-05,-0.49349045753479004,75.0,-0.4937194585800171,0.0002,0.0
75,2.6787725801113993e-05,-0.4882764518260956,76.0,-0.48871946334838867,0.0002,0.0
76,2.8131100407335907e-05,-0.4833691418170929,77.0,-0.48371946811676025,0.0002,0.0
77,2.9511278626159765e-05,-0.47815513610839844,78.0,-0.47871947288513184,0.0002,0.0
78,3.1112285796552896e-05,-0.47324782609939575,79.0,-0.4737194776535034,0.0002,0.0
79,3.288504740339704e-05,-0.46834051609039307,80.0,-0.468719482421875,0.0002,0.0
80,3.4436983696650714e-05,-0.46343323588371277,81.0,-0.4637194871902466,0.0002,0.0
81,3.619747803895734e-05,-0.4582192301750183,82.0,-0.4587194621562958,0.0002,0.0
82,3.771873889490962e-05,-0.4533119201660156,83.0,-0.45371946692466736,0.0002,0.0
83,3.958964953199029e-05,-0.44840461015701294,84.0,-0.44871947169303894,0.0002,0.0
84,4.157097282586619e-05,-0.4431906044483185,85.0,-0.4437194764614105,0.0002,0.0
85,4.373018236947246e-05,-0.4382832944393158,86.0,-0.4387194812297821,0.0002,0.0
86,4.5398664951790124e-05,-0.4333760142326355,87.0,-0.4337194859981537,0.0002,0.0
87,4.778484071721323e-05,-0.4284687042236328,88.0,-0.4287194609642029,0.0002,0.0
88,4.975389674655162e-05,-0.42325469851493835,89.0,-0.42371946573257446,0.0002,0.0
89,5.166160917724483e-05,-0.41834738850593567,90.0,-0.41871947050094604,0.0002,0.0
90,5.42256748303771e-05,-0.413440078496933,91.0,-0.4137194752693176,0.0002,0.0
91,5.688175224349834e-05,-0.4082260727882385,92.0,-0.4087194800376892,0.0002,0.0
92,5.914524444960989e-05,-0.4033187925815582,93.0,-0.4037194848060608,0.0002,0.0
93,6.178292096592486e-05,-0.39810478687286377,94.0,-0.39871945977211,0.0002,0.0
94,6.479477451648563e-05,-0.39350417256355286,95.0,-0.39371946454048157,0.0002,0.0
95,6.72729656798765e-05,-0.3882901668548584,96.0,-0.38871946930885315,0.0002,0.0
96,7.005171937635168e-05,-0.3833828568458557,97.0,-0.38371947407722473,0.0002,0.0
97,7.281821308424696e-05,-0.3784755766391754,98.0,-0.3787194788455963,0.0002,0.0
98,7.56337758502923e-05,-0.37326157093048096,99.0,-0.3737194836139679,0.0002,0.0
99,7.82653150963597e-05,-0.36835426092147827,100.0,-0.3687194883823395,0.0002,0.0
100,8.141212310874835e-05,-0.3634469509124756,101.0,-0.36371946334838867,0.0002,0.0
