,current,potential,elapsed_time,applied_potential,current_range,segment
0,-4.9238642532145604e-06,-0.722906768321991,0.8,-0.723558783531189,2e-05,0.0
1,-4.696288215200184e-06,-0.722906768321991,1.6,-0.7234587669372559,2e-05,0.0
2,-4.557043212116696e-06,-0.722906768321991,2.4,-0.7233588099479675,2e-05,0.0
3,-4.3779268708021846e-06,-0.7226001024246216,3.2,-0.7232587933540344,2e-05,0.0
4,-4.187768809060799e-06,-0.7226001024246216,4.0,-0.7231587767601013,2e-05,0.0
5,-4.039936357003171e-06,-0.7226001024246216,4.8,-0.7230587601661682,2e-05,0.0
6,-3.895784630003618e-06,-0.7222933769226074,5.6,-0.7229588031768799,2e-05,0.0
7,-3.771261845031404e-06,-0.7222933769226074,6.4,-0.7228587865829468,2e-05,0.0
8,-3.7258691918395925e-06,-0.7222933769226074,7.2,-0.7227587699890137,2e-05,0.0
9,-3.678022949316073e-06,-0.7219866514205933,8.0,-0.7226588129997253,2e-05,0.0
10,-3.699492481246125e-06,-0.7219866514205933,8.8,-0.7225587964057922,2e-05,0.0
11,-3.735070322363754e-06,-0.7219866514205933,9.6,-0.7224587798118591,2e-05,0.0
12,-3.7792360672028735e-06,-0.7216799855232239,10.4,-0.722358763217926,2e-05,0.0
13,-3.862660378217697e-06,-0.7216799855232239,11.2,-0.7222588062286377,2e-05,0.0
14,-3.947924597014207e-06,-0.7216799855232239,12.0,-0.7221587896347046,2e-05,0.0
15,-3.992090114479652e-06,-0.7213732600212097,12.8,-0.7220587730407715,2e-05,0.0
16,-4.077968242199859e-06,-0.7213732600212097,13.6,-0.7219587564468384,2e-05,0.0
17,-4.153417648922186e-06,-0.7213732600212097,14.4,-0.72185879945755,2e-05,0.0
18,-4.179794814263005e-06,-0.7210665345191956,15.2,-0.7217587828636169,2e-05,0.0
19,-4.184701992926421e-06,-0.7210665345191956,16.0,-0.7216587662696838,2e-05,0.0
20,-4.145443654124392e-06,-0.7210665345191956,16.8,-0.7215588092803955,2e-05,0.0
21,-4.061405888933223e-06,-0.7207598686218262,17.6,-0.7214587926864624,2e-05,0.0
22,-3.9841161196818575e-06,-0.7207598686218262,18.4,-0.7213587760925293,2e-05,0.0
23,-3.858979653159622e-06,-0.7207598686218262,19.2,-0.7212587594985962,2e-05,0.0
24,-3.6737292248290032e-06,-0.7207598686218262,20.0,-0.7211588025093079,2e-05,0.0
25,-3.58233069164271e-06,-0.720453143119812,20.8,-0.7210587859153748,2e-05,0.0
26,-3.469462626526365e-06,-0.720453143119812,21.6,-0.7209587693214417,2e-05,0.0
27,-3.3259241263294825e-06,-0.7201464176177979,22.4,-0.7208588123321533,2e-05,0.0
28,-3.129018750769319e-06,-0.7201464176177979,23.2,-0.7207587957382202,2e-05,0.0
29,-3.027192178706173e-06,-0.7201464176177979,24.0,-0.7206587791442871,2e-05,0.0
30,-2.924752152466681e-06,-0.7201464176177979,24.8,-0.720558762550354,2e-05,0.0
31,-2.8621841465792386e-06,-0.7198397517204285,25.6,-0.7204588055610657,2e-05,0.0
32,-2.804523319355212e-06,-0.7198397517204285,26.4,-0.7203587889671326,2e-05,0.0
33,-2.8296733489696635e-06,-0.7195330262184143,27.2,-0.7202587723731995,2e-05,0.0
34,-2.8726121854560915e-06,-0.7195330262184143,28.0,-0.7201587557792664,2e-05,0.0
35,-2.9290461043274263e-06,-0.7195330262184143,28.8,-0.720058798789978,2e-05,0.0
36,-2.991000883412198e-06,-0.7195330262184143,29.6,-0.7199587821960449,2e-05,0.0
37,-3.0511152999679325e-06,-0.7192263007164001,30.4,-0.7198587656021118,2e-05,0.0
38,-3.1069357646629214e-06,-0.7192263007164001,31.2,-0.7197588086128235,2e-05,0.0
39,-3.1891331673250534e-06,-0.7189196348190308,32.0,-0.7196587920188904,2e-05,0.0
40,-3.2774644296296174e-06,-0.7189196348190308,32.8,-0.7195587754249573,2e-05,0.0
41,-3.337579073559027e-06,-0.7189196348190308,33.6,-0.7194587588310242,2e-05,0.0
42,-3.3412593438697513e-06,-0.7189196348190308,34.4,-0.7193588018417358,2e-05,0.0
43,-3.3234705369977746e-06,-0.7186129093170166,35.2,-0.7192587852478027,2e-05,0.0
44,-3.2694902074581478e-06,-0.7186129093170166,36.0,-0.7191587686538696,2e-05,0.0
45,-3.1731844956084387e-06,-0.7186129093170166,36.8,-0.7190588116645813,2e-05,0.0
46,-3.108162673015613e-06,-0.7183061838150024,37.6,-0.7189587950706482,2e-05,0.0
47,-2.965237399621401e-06,-0.7183061838150024,38.4,-0.7188587784767151,2e-05,0.0
48,-2.813111223076703e-06,-0.7183061838150024,39.2,-0.718758761882782,2e-05,0.0
49,-2.689815119083505e-06,-0.7179994583129883,40.0,-0.7186588048934937,2e-05,0.0
50,-2.6112984414794482e-06,-0.7179994583129883,40.8,-0.7185587882995605,2e-05,0.0
51,-2.413166157566593e-06,-0.7179994583129883,41.6,-0.7184587717056274,2e-05,0.0
52,-2.2530653041030746e-06,-0.7176927924156189,42.4,-0.7183587551116943,2e-05,0.0
53,-2.1702546746382723e-06,-0.7176927924156189,43.2,-0.718258798122406,2e-05,0.0
54,-2.100325673382031e-06,-0.7173860669136047,44.0,-0.7181587815284729,2e-05,0.0
55,-2.058000063698273e-06,-0.7173860669136047,44.8,-0.7180587649345398,2e-05,0.0
56,-2.0616805613826727e-06,-0.7173860669136047,45.6,-0.7179588079452515,2e-05,0.0
57,-2.0751756437675795e-06,-0.7173860669136047,46.4,-0.7178587913513184,2e-05,0.0
58,-2.1168877992749913e-06,-0.7170793414115906,47.2,-0.7177587747573853,2e-05,0.0
59,-2.1947912500763778e-06,-0.7170793414115906,48.0,-0.7176587581634521,2e-05,0.0
60,-2.2628798888035817e-06,-0.7170793414115906,48.8,-0.7175588011741638,2e-05,0.0
61,-2.303365135958302e-06,-0.7167726755142212,49.6,-0.7174587845802307,2e-05,0.0
62,-2.4119392492139013e-06,-0.7167726755142212,50.4,-0.7173587679862976,2e-05,0.0
63,-2.479414661138435e-06,-0.7167726755142212,51.2,-0.7172588109970093,2e-05,0.0
64,-2.570813194324728e-06,-0.716465950012207,52.0,-0.7171587944030762,2e-05,0.0
65,-2.6094580789504107e-06,-0.716465950012207,52.8,-0.7170587778091431,2e-05,0.0
66,-2.573266783656436e-06,-0.7161592245101929,53.6,-0.71695876121521,2e-05,0.0
67,-2.543209575378569e-06,-0.7161592245101929,54.4,-0.7168588042259216,2e-05,0.0
68,-2.4855487481545424e-06,-0.7161592245101929,55.2,-0.7167587876319885,2e-05,0.0
69,-2.3990576210053405e-06,-0.7161592245101929,56.0,-0.7166587710380554,2e-05,0.0
70,-2.2665603864879813e-06,-0.7158525586128235,56.8,-0.7165587544441223,2e-05,0.0
71,-2.1800692593387794e-06,-0.7158525586128235,57.6,-0.716458797454834,2e-05,0.0
72,-1.992365014302777e-06,-0.7158525586128235,58.4,-0.7163587808609009,2e-05,0.0
73,-1.8985127780979383e-06,-0.7155458331108093,59.2,-0.7162587642669678,2e-05,0.0
74,-1.7930058220372302e-06,-0.7155458331108093,60.0,-0.7161588072776794,2e-05,0.0
75,-1.6151161617017351e-06,-0.7155458331108093,60.8,-0.7160587906837463,2e-05,0.0
76,-1.447654540243093e-06,-0.7152391076087952,61.6,-0.7159587740898132,2e-05,0.0
77,-1.3893802588427207e-06,-0.7152391076087952,62.4,-0.7158587574958801,2e-05,0.0
78,-1.3538024177250918e-06,-0.7152391076087952,63.2,-0.7157588005065918,2e-05,0.0
79,-1.331719545305532e-06,-0.7149324417114258,64.0,-0.7156587839126587,2e-05,0.0
80,-1.3458279681799468e-06,-0.7149324417114258,64.8,-0.7155587673187256,2e-05,0.0
81,-1.353188963548746e-06,-0.7149324417114258,65.6,-0.7154588103294373,2e-05,0.0
82,-1.416370423612534e-06,-0.7146257162094116,66.4,-0.7153587937355042,2e-05,0.0
83,-1.5151299521676265e-06,-0.7146257162094116,67.2,-0.715258777141571,2e-05,0.0
84,-1.562976081004308e-06,-0.7146257162094116,68.0,-0.7151587605476379,2e-05,0.0
85,-1.616956410543935e-06,-0.7143189907073975,68.8,-0.7150588035583496,2e-05,0.0
86,-1.6758440324338153e-06,-0.7143189907073975,69.6,-0.7149587869644165,2e-05,0.0
87,-1.7586547755854554e-06,-0.7143189907073975,70.4,-0.7148587703704834,2e-05,0.0
88,-1.8212227814728976e-06,-0.7143189907073975,71.2,-0.7147588133811951,2e-05,0.0
89,-1.8107948562828824e-06,-0.7140123248100281,72.0,-0.714658796787262,2e-05,0.0
90,-1.7727631984598702e-06,-0.7140123248100281,72.8,-0.7145587801933289,2e-05,0.0
91,-1.7052877865353366e-06,-0.7140123248100281,73.6,-0.7144587635993958,2e-05,0.0
92,-1.6224771570705343e-06,-0.7137055993080139,74.4,-0.7143588066101074,2e-05,0.0
93,-1.5053152537802816e-06,-0.7137055993080139,75.2,-0.7142587900161743,2e-05,0.0
94,-1.4421337937164935e-06,-0.7137055993080139,76.0,-0.7141587734222412,2e-05,0.0
95,-1.2636306792046526e-06,-0.7133988738059998,76.8,-0.7140587568283081,2e-05,0.0
96,-1.1391078942324384e-06,-0.7133988738059998,77.6,-0.7139587998390198,2e-05,0.0
97,-1.0225595588053693e-06,-0.7133988738059998,78.4,-0.7138587832450867,2e-05,0.0
98,-8.869953376233752e-07,-0.7130922079086304,79.2,-0.7137587666511536,2e-05,0.0
99,-7.299616981981671e-07,-0.7130922079086304,80.0,-0.7136588096618652,2e-05,0.0
100,-6.158668952593871e-07,-0.7130922079086304,80.8,-0.7135587930679321,2e-05,0.0
101,-5.594329763880523e-07,-0.7127854824066162,81.6,-0.713458776473999,2e-05,0.0
102,-5.447110424938728e-07,-0.7127854824066162,82.4,-0.7133587598800659,2e-05,0.0
103,-5.686341637556325e-07,-0.7127854824066162,83.2,-0.7132588028907776,2e-05,0.0
104,-5.692475610885595e-07,-0.712478756904602,84.0,-0.7131587862968445,2e-05,0.0
105,-6.04825515893026e-07,-0.712478756904602,84.8,-0.7130587697029114,2e-05,0.0
106,-7.391628855657473e-07,-0.712478756904602,85.6,-0.712958812713623,2e-05,0.0
107,-7.698334911765414e-07,-0.7121720910072327,86.4,-0.7128587961196899,2e-05,0.0
108,-8.103187383312616e-07,-0.7121720910072327,87.2,-0.7127587795257568,2e-05,0.0
109,-8.808611937638489e-07,-0.7121720910072327,88.0,-0.7126587629318237,2e-05,0.0
110,-9.783938139662496e-07,-0.7118653655052185,88.8,-0.7125588059425354,2e-05,0.0
111,-1.0299204404873308e-06,-0.7118653655052185,89.6,-0.7124587893486023,2e-05,0.0
112,-1.0336009381717304e-06,-0.7115586400032043,90.4,-0.7123587727546692,2e-05,0.0
113,-1.026240056489769e-06,-0.7115586400032043,91.2,-0.7122587561607361,2e-05,0.0
114,-9.489500030213094e-07,-0.7115586400032043,92.0,-0.7121587991714478,2e-05,0.0
115,-8.759539014135953e-07,-0.7115586400032043,92.8,-0.7120587825775146,2e-05,0.0
116,-7.636993473170151e-07,-0.711251974105835,93.6,-0.7119587659835815,2e-05,0.0
117,-7.011312845861539e-07,-0.711251974105835,94.4,-0.7118588089942932,2e-05,0.0
118,-5.661805175805057e-07,-0.711251974105835,95.2,-0.7117587924003601,2e-05,0.0
119,-4.183480371011683e-07,-0.7109452486038208,96.0,-0.711658775806427,2e-05,0.0
120,-3.1284105261875084e-07,-0.7109452486038208,96.8,-0.7115587592124939,2e-05,0.0
121,-1.4415256543998112e-07,-0.7109452486038208,97.6,-0.7114588022232056,2e-05,0.0
122,-2.3310269270382378e-08,-0.7106385231018066,98.4,-0.7113587856292725,2e-05,0.0
123,9.937226508327512e-08,-0.7106385231018066,99.2,-0.7112587690353394,2e-05,0.0
124,2.1162678365271859e-07,-0.7106385231018066,100.0,-0.711158812046051,2e-05,0.0
125,2.4659129849169403e-07,-0.7103318572044373,100.8,-0.7110587954521179,2e-05,0.0
126,2.410706088085135e-07,-0.7103318572044373,101.6,-0.7109587788581848,2e-05,0.0
127,2.251218660376253e-07,-0.7103318572044373,102.4,-0.7108587622642517,2e-05,0.0
128,2.0426583091648354e-07,-0.7100251317024231,103.2,-0.7107588052749634,2e-05,0.0
129,1.551928221488197e-07,-0.7100251317024231,104.0,-0.7106587886810303,2e-05,0.0
130,1.232953650287527e-07,-0.7100251317024231,104.8,-0.7105587720870972,2e-05,0.0
131,4.1098061842603784e-08,-0.7097184062004089,105.6,-0.7104587554931641,2e-05,0.0
132,-5.873197436202793e-13,-0.7097184062004089,106.4,-0.7103587985038757,2e-05,0.0
133,-5.336748998274743e-08,-0.7097184062004089,107.2,-0.7102587819099426,2e-05,0.0
134,-1.2145629568749428e-07,-0.7094116806983948,108.0,-0.7101587653160095,2e-05,0.0
135,-1.472196373697443e-07,-0.7094116806983948,108.8,-0.7100588083267212,2e-05,0.0
136,-1.0980145503936001e-07,-0.7094116806983948,109.6,-0.7099587917327881,2e-05,0.0
137,-9.446613802310821e-08,-0.7091050148010254,110.4,-0.709858775138855,2e-05,0.0
138,-7.974952254130585e-09,-0.7091050148010254,111.2,-0.7097587585449219,2e-05,0.0
139,9.937226508327512e-08,-0.7091050148010254,112.0,-0.7096588015556335,2e-05,0.0
140,1.5580623369260138e-07,-0.7087982892990112,112.8,-0.7095587849617004,2e-05,0.0
141,2.3248281877386034e-07,-0.7087982892990112,113.6,-0.7094587683677673,2e-05,0.0
142,3.5884582416656485e-07,-0.7087982892990112,114.4,-0.709358811378479,2e-05,0.0
143,5.128123916620098e-07,-0.7087982892990112,115.2,-0.7092587947845459,2e-05,0.0
144,6.428559231608233e-07,-0.7084915637969971,116.0,-0.7091587781906128,2e-05,0.0
145,7.72286000483291e-07,-0.7084915637969971,116.8,-0.7090587615966797,2e-05,0.0
146,8.56323538300785e-07,-0.7081848978996277,117.6,-0.7089588046073914,2e-05,0.0
147,9.967950518330326e-07,-0.7081848978996277,118.4,-0.7088587880134583,2e-05,0.0
148,1.026238805934554e-06,-0.7081848978996277,119.2,-0.7087587714195251,2e-05,0.0
149,1.0317595524611534e-06,-0.7081848978996277,120.0,-0.708658754825592,2e-05,0.0
150,1.027465600600408e-06,-0.7078781723976135,120.8,-0.7085587978363037,2e-05,0.0
151,9.875938076220336e-07,-0.7078781723976135,121.6,-0.7084587812423706,2e-05,0.0
152,9.655109352024738e-07,-0.7078781723976135,122.4,-0.7083587646484375,2e-05,0.0
153,9.569231451678206e-07,-0.7075714468955994,123.2,-0.7082588076591492,2e-05,0.0
154,8.753393103688722e-07,-0.7075714468955994,124.0,-0.7081587910652161,2e-05,0.0
155,8.176785399882647e-07,-0.7075714468955994,124.8,-0.708058774471283,2e-05,0.0
156,7.587909180983843e-07,-0.70726478099823,125.6,-0.7079587578773499,2e-05,0.0
157,6.747533802808903e-07,-0.70726478099823,126.4,-0.7078588008880615,2e-05,0.0
158,6.483766128440038e-07,-0.7069580554962158,127.2,-0.7077587842941284,2e-05,0.0
159,6.45922966668877e-07,-0.7069580554962158,128.0,-0.7076587677001953,2e-05,0.0
160,6.821143188062706e-07,-0.7069580554962158,128.8,-0.707558810710907,2e-05,0.0
161,7.060373832246114e-07,-0.7066513299942017,129.6,-0.7074587941169739,2e-05,0.0
162,8.219723781621724e-07,-0.7066513299942017,130.4,-0.7073587775230408,2e-05,0.0
163,8.833136462271796e-07,-0.7066513299942017,131.2,-0.7072587609291077,2e-05,0.0
164,9.808462664295803e-07,-0.7063446640968323,132.0,-0.7071588039398193,2e-05,0.0
165,1.0434143860038603e-06,-0.7063446640968323,132.8,-0.7070587873458862,2e-05,0.0
166,1.2078089639544487e-06,-0.7063446640968323,133.6,-0.7069587707519531,2e-05,0.0
167,1.3495073289959691e-06,-0.7060379385948181,134.4,-0.70685875415802,2e-05,0.0
168,1.489978785684798e-06,-0.7060379385948181,135.2,-0.7067587971687317,2e-05,0.0
169,1.5697224853283842e-06,-0.7060379385948181,136.0,-0.7066587805747986,2e-05,0.0
170,1.6917915672820527e-06,-0.705731213092804,136.8,-0.7065587639808655,2e-05,0.0
171,1.739637809805572e-06,-0.705731213092804,137.6,-0.7064588069915771,2e-05,0.0
172,1.783803440957854e-06,-0.705731213092804,138.4,-0.706358790397644,2e-05,0.0
173,1.7654010662226938e-06,-0.705731213092804,139.2,-0.7062587738037109,2e-05,0.0
174,1.7672413150648936e-06,-0.7054245471954346,140.0,-0.7061587572097778,2e-05,0.0
175,1.7083536931750132e-06,-0.7054245471954346,140.8,-0.7060588002204895,2e-05,0.0
176,1.751905983837787e-06,-0.7051178216934204,141.6,-0.7059587836265564,2e-05,0.0
177,1.69976590314036e-06,-0.7051178216934204,142.4,-0.7058587670326233,2e-05,0.0
178,1.6537600231458782e-06,-0.7051178216934204,143.2,-0.705758810043335,2e-05,0.0
179,1.6108210729726125e-06,-0.7051178216934204,144.0,-0.7056587934494019,2e-05,0.0
180,1.5451859098902787e-06,-0.7048110961914062,144.8,-0.7055587768554688,2e-05,0.0
181,1.5476396129088243e-06,-0.7048110961914062,145.6,-0.7054587602615356,2e-05,0.0
182,1.510221409262158e-06,-0.7048110961914062,146.4,-0.7053588032722473,2e-05,0.0
183,1.4967263268772513e-06,-0.7045044302940369,147.2,-0.7052587866783142,2e-05,0.0
184,1.5642017388017848e-06,-0.7045044302940369,148.0,-0.7051587700843811,2e-05,0.0
185,1.6267698583760648e-06,-0.7045044302940369,148.8,-0.7050588130950928,2e-05,0.0
186,1.7236890244021197e-06,-0.7041977047920227,149.6,-0.7049587965011597,2e-05,0.0
187,1.827355731620628e-06,-0.7041977047920227,150.4,-0.7048587799072266,2e-05,0.0
188,1.8715214764597476e-06,-0.7041977047920227,151.2,-0.7047587633132935,2e-05,0.0
189,2.004018597290269e-06,-0.7038909792900085,152.0,-0.7046588063240051,2e-05,0.0
190,2.1567584553849883e-06,-0.7038909792900085,152.8,-0.704558789730072,2e-05,0.0
191,2.292322506036726e-06,-0.7038909792900085,153.6,-0.7044587731361389,2e-05,0.0
192,2.402736981821363e-06,-0.7035843133926392,154.4,-0.7043587565422058,2e-05,0.0
193,2.5180584088957403e-06,-0.7035843133926392,155.2,-0.7042587995529175,2e-05,0.0
194,2.5652911972429138e-06,-0.7035843133926392,156.0,-0.7041587829589844,2e-05,0.0
195,2.623565478643286e-06,-0.703277587890625,156.8,-0.7040587663650513,2e-05,0.0
196,2.6517823243921157e-06,-0.703277587890625,157.6,-0.7039588093757629,2e-05,0.0
197,2.624178932819632e-06,-0.703277587890625,158.4,-0.7038587927818298,2e-05,0.0
198,2.624178932819632e-06,-0.7029708623886108,159.2,-0.7037587761878967,2e-05,0.0
199,2.6192715267825406e-06,-0.7029708623886108,160.0,-0.7036587595939636,2e-05,0.0
200,2.6125239855900872e-06,-0.7026641964912415,160.8,-0.7035588026046753,2e-05,0.0
201,2.5775595986488042e-06,-0.7026641964912415,161.6,-0.7034587860107422,2e-05,0.0
202,2.4873877464415273e-06,-0.7026641964912415,162.4,-0.7033587694168091,2e-05,0.0
203,2.422366151222377e-06,-0.7026641964912415,163.2,-0.7032588124275208,2e-05,0.0
204,2.4008966192923253e-06,-0.7023574709892273,164.0,-0.7031587958335876,2e-05,0.0
205,2.3855614017520566e-06,-0.7023574709892273,164.8,-0.7030587792396545,2e-05,0.0
206,2.3794270873622736e-06,-0.7023574709892273,165.6,-0.7029587626457214,2e-05,0.0
207,2.442608774799737e-06,-0.7020507454872131,166.4,-0.7028588056564331,2e-05,0.0
208,2.5002696020237636e-06,-0.7020507454872131,167.2,-0.7027587890625,2e-05,0.0
209,2.539527940825792e-06,-0.7020507454872131,168.0,-0.7026587724685669,2e-05,0.0
210,2.6720249479694758e-06,-0.7017440795898438,168.8,-0.7025587558746338,2e-05,0.0
211,2.7370467705623014e-06,-0.7017440795898438,169.6,-0.7024587988853455,2e-05,0.0
212,2.83273925560934e-06,-0.7017440795898438,170.4,-0.7023587822914124,2e-05,0.0
213,2.970143668790115e-06,-0.7014373540878296,171.2,-0.7022587656974792,2e-05,0.0
214,3.1032541301101446e-06,-0.7014373540878296,172.0,-0.7021588087081909,2e-05,0.0
215,3.2283903692587046e-06,-0.7014373540878296,172.8,-0.7020587921142578,2e-05,0.0
216,3.326536443637451e-06,-0.7014373540878296,173.6,-0.7019587755203247,2e-05,0.0
217,3.400759396754438e-06,-0.7011306285858154,174.4,-0.7018587589263916,2e-05,0.0
218,3.4418578707118286e-06,-0.7011306285858154,175.2,-0.7017588019371033,2e-05,0.0
219,3.4578067698021187e-06,-0.7011306285858154,176.0,-0.7016587853431702,2e-05,0.0
220,3.506879693304654e-06,-0.7008239030838013,176.8,-0.7015587687492371,2e-05,0.0
221,3.4528993637650274e-06,-0.7008239030838013,177.6,-0.7014588117599487,2e-05,0.0
222,3.4731419873423874e-06,-0.7005172371864319,178.4,-0.7013587951660156,2e-05,0.0
223,3.438177373027429e-06,-0.7005172371864319,179.2,-0.7012587785720825,2e-05,0.0
224,3.4246825180161977e-06,-0.7005172371864319,180.0,-0.7011587619781494,2e-05,0.0
225,3.3375777093169745e-06,-0.7002105116844177,180.8,-0.7010588049888611,2e-05,0.0
226,3.2725561140978243e-06,-0.7002105116844177,181.6,-0.700958788394928,2e-05,0.0
227,3.2296172776113963e-06,-0.7002105116844177,182.4,-0.7008587718009949,2e-05,0.0
228,3.209374654034036e-06,-0.6999037861824036,183.2,-0.7007587552070618,2e-05,0.0
229,3.1977197068044916e-06,-0.6999037861824036,184.0,-0.7006587982177734,2e-05,0.0
230,3.265195118729025e-06,-0.6999037861824036,184.8,-0.7005587816238403,2e-05,0.0
231,3.3001597330439836e-06,-0.6999037861824036,185.6,-0.7004587650299072,2e-05,0.0
232,3.3351241199852666e-06,-0.6995971202850342,186.4,-0.7003588080406189,2e-05,0.0
233,3.4222287013108144e-06,-0.6995971202850342,187.2,-0.7002587914466858,2e-05,0.0
234,3.5025857414439088e-06,-0.69929039478302,188.0,-0.7001587748527527,2e-05,0.0
235,3.6056392218597466e-06,-0.69929039478302,188.8,-0.7000587582588196,2e-05,0.0
236,3.7117595184099628e-06,-0.69929039478302,189.6,-0.6999588012695312,2e-05,0.0
237,3.831988578895107e-06,-0.69929039478302,190.4,-0.6998587846755981,2e-05,0.0
238,3.9362685129162855e-06,-0.6989836692810059,191.2,-0.699758768081665,2e-05,0.0
239,4.073673153470736e-06,-0.6989836692810059,192.0,-0.6996588110923767,2e-05,0.0
240,4.121519395994255e-06,-0.6989836692810059,192.8,-0.6995587944984436,2e-05,0.0
